timestamp ch1 ch2 ch3 ambient
644871350309279359 -227468 -215793 -207554 -268746
644871350316667632 -334622 -313968 -304802 -397770
644871350324055905 -391873 -366312 -356615 -466307
644871350331444178 -422380 -394034 -384318 -502771
644871350338832451 -438766 -408732 -399061 -522193
644871350346220724 -447423 -416535 -406811 -532594
644871350353608997 -452029 -420650 -410978 -538101
644871350360997270 -454563 -422709 -413167 -540989
644871350368385543 -455906 -423929 -414344 -542508
644871350375773816 -456544 -424491 -414855 -543373
644871350383162089 -456959 -424813 -415179 -543705
644871350390550362 -457111 -424975 -415343 -544007
644871350397938635 -457142 -424985 -415417 -544100
644871350405326908 -457155 -424971 -415414 -544162
644871350412715181 -457261 -425050 -415452 -544221
644871350420103454 -457196 -425033 -415400 -544155
644871350427491727 -457190 -424973 -415362 -544223
644871350434880000 -457136 -424965 -415408 -544205
644871350442252800 -457024 -424853 -415376 -544235
644871350449641984 -457099 -424804 -415295 -544321
644871350457031168 -457023 -424837 -415195 -544217
644871350464420352 -457141 -424826 -415222 -544271
644871350471809536 -457056 -424801 -415215 -544282
644871350479198720 -456963 -424679 -415160 -544260
644871350486587904 -456957 -424667 -415080 -544310
644871350493977088 -457037 -424638 -415028 -544373
644871350501366272 -456955 -424650 -415070 -544350
644871350508755456 -456956 -424507 -415021 -544343
644871350516144640 -456905 -424467 -414913 -544317
644871350523533824 -456849 -424410 -414838 -544310
644871350530923008 -456786 -424441 -414829 -544283
644871350538312192 -456736 -424378 -414772 -544320
644871350545701376 -456724 -424304 -414748 -544335
644871350553090560 -456653 -424283 -414674 -544337
644871350560479744 -456671 -424186 -414589 -544374
644871350567868928 -456632 -424197 -414583 -544265
644871350575242642 -456774 -424018 -414418 -544356
644871350582632736 -456660 -424087 -414308 -544400
644871350590022830 -456579 -423980 -414354 -544360
644871350597412924 -456535 -424081 -414354 -544297
644871350604803018 -456499 -424089 -414326 -544248
644871350612193112 -456426 -424049 -414374 -544272
644871350619583206 -456536 -424018 -414371 -544233
644871350626973300 -456500 -424098 -414435 -544306
644871350634363394 -456539 -424138 -414483 -544262
644871350641753488 -456527 -424176 -414491 -544325
644871350649143582 -456595 -424193 -414500 -544340
644871350656533676 -456601 -424222 -414575 -544309
644871350663923770 -456674 -424298 -414611 -544315
644871350671313864 -456692 -424362 -414678 -544310
644871350678703958 -456776 -424371 -414758 -544206
644871350686094052 -456746 -424528 -414830 -544283
644871350693484146 -456844 -424483 -414832 -544236
644871350700874240 -456943 -424589 -414863 -544299
644871350708295295 -456936 -424580 -415027 -544375
644871350715683568 -456984 -424655 -415046 -544290
644871350723071841 -456990 -424683 -414987 -544322
644871350730460114 -457006 -424668 -415015 -544263
644871350737848387 -457013 -424762 -415174 -544269
644871350745236660 -457049 -424785 -415126 -544294
644871350752624933 -457016 -424850 -415135 -544230
644871350760013206 -457103 -424864 -415177 -544259
644871350767401479 -457034 -424980 -415199 -544291
644871350774789752 -457113 -424900 -415229 -544320
644871350782178025 -457115 -425025 -415197 -544314
644871350789566298 -457129 -424890 -415214 -544257
644871350796954571 -457162 -424987 -415237 -544288
644871350804342844 -457234 -425037 -415378 -544280
644871350811731117 -457152 -425112 -415332 -544201
644871350819119390 -457252 -425053 -415350 -544293
644871350826507663 -457286 -425053 -415343 -544380
644871350833895936 -457249 -425041 -415427 -544321
644871350841253266 -457322 -425086 -415188 -544371
644871350848643360 -457284 -425081 -415270 -544307
644871350856033454 -457187 -424987 -415287 -544379
644871350863423548 -457231 -425013 -415351 -544296
644871350870813642 -457215 -425020 -415376 -544344
644871350878203736 -457170 -425004 -415298 -544385
644871350885593830 -457271 -425003 -415312 -544366
644871350892983924 -457168 -425033 -415247 -544280
644871350900374018 -457156 -425007 -415293 -544245
644871350907764112 -457170 -424968 -415347 -544231
644871350915154206 -457244 -424969 -415329 -544264
644871350922544300 -457254 -425042 -415407 -544341
644871350929934394 -457198 -425025 -415284 -544238
644871350937324488 -457113 -425029 -415344 -544315
644871350944714582 -457149 -424966 -415364 -544229
644871350952104676 -457091 -424984 -415304 -544236
644871350959494770 -457149 -425019 -415272 -544293
644871350966884864 -457132 -425090 -415256 -544258
644871350974290432 -457121 -425118 -415307 -544270
644871350981679616 -457094 -425101 -415322 -544322
644871350989068800 -457080 -425092 -415333 -544336
644871350996457984 -457173 -425059 -415345 -544256
644871351003847168 -457158 -425117 -415351 -544296
644871351011236352 -457130 -425025 -415353 -544259
644871351018625536 -457128 -424979 -415377 -544241
644871351026014720 -457151 -424981 -415341 -544300
644871351033403904 -457164 -425044 -415339 -544269
644871351040793088 -457113 -425023 -415325 -544334
644871351048182272 -457207 -425071 -415280 -544379
644871351055571456 -457143 -424980 -415210 -544366
644871351062960640 -457173 -425072 -415211 -544392
644871351070349824 -457219 -425052 -415281 -544360
644871351077739008 -457112 -425034 -415251 -544297
644871351085128192 -457022 -424970 -415306 -544181
644871351092517376 -457067 -424882 -415186 -544222
644871351099906560 -457010 -424842 -415174 -544226
644871351107342171 -456934 -424817 -415246 -544314
644871351114728624 -456917 -424793 -415162 -544348
644871351122115077 -457060 -424835 -415140 -544347
644871351129501530 -457012 -424889 -415061 -544251
644871351136887983 -456960 -424759 -415026 -544271
644871351144274436 -456955 -424834 -415035 -544208
644871351151660889 -456951 -424739 -415009 -544290
644871351159047342 -456944 -424742 -415022 -544280
644871351166433795 -456882 -424761 -415017 -544308
644871351173820248 -456921 -424753 -414935 -544326
644871351181206701 -456904 -424714 -414926 -544314
644871351188593154 -456839 -424651 -414945 -544317
644871351195979607 -456848 -424591 -414902 -544360
644871351203366060 -456807 -424604 -414856 -544348
644871351210752513 -456759 -424557 -414912 -544272
644871351218138966 -456763 -424460 -414872 -544186
644871351225525419 -456723 -424584 -414789 -544286
644871351232911872 -456683 -424445 -414734 -544248
644871351240190024 -456840 -424413 -414572 -544306
644871351247582848 -456701 -424314 -414504 -544232
644871351254975672 -456715 -424471 -414631 -544222
644871351262368496 -456775 -424407 -414616 -544276
644871351269761320 -456658 -424318 -414651 -544199
644871351277154144 -456606 -424313 -414711 -544263
644871351284546968 -456551 -424349 -414587 -544343
644871351291939792 -456504 -424365 -414572 -544231
644871351299332616 -456441 -424215 -414451 -544240
644871351306725440 -456430 -424221 -414464 -544233
644871351314118264 -456474 -424204 -414391 -544323
644871351321511088 -456397 -424235 -414350 -544257
644871351328903912 -456387 -424128 -414343 -544273
644871351336296736 -456282 -424171 -414317 -544359
644871351343689560 -456378 -424132 -414328 -544325
644871351351082384 -456297 -424083 -414310 -544319
644871351358475208 -456380 -424200 -414311 -544285
644871351365868032 -456322 -424143 -414253 -544309
644871351373307282 -456240 -424230 -414291 -544352
644871351380697376 -456333 -424153 -414393 -544357
644871351388087470 -456335 -424092 -414336 -544408
644871351395477564 -456210 -424088 -414265 -544303
644871351402867658 -456211 -424068 -414326 -544330
644871351410257752 -456196 -424055 -414274 -544376
644871351417647846 -456149 -424155 -414321 -544298
644871351425037940 -456213 -424000 -414286 -544317
644871351432428034 -456237 -424052 -414244 -544371
644871351439818128 -456198 -424070 -414255 -544286
644871351447208222 -456212 -424058 -414242 -544248
644871351454598316 -456189 -423932 -414215 -544216
644871351461988410 -456148 -423956 -414205 -544166
644871351469378504 -456073 -423895 -414176 -544241
644871351476768598 -456096 -423884 -414231 -544293
644871351484158692 -456032 -423889 -414171 -544241
644871351491548786 -455973 -423864 -414154 -544293
644871351498938880 -456068 -423821 -414114 -544266
644871351506359935 -456001 -423719 -414128 -544135
644871351513748208 -456012 -423772 -414120 -544306
644871351521136481 -456002 -423756 -414132 -544280
644871351528524754 -455945 -423692 -414048 -544235
644871351535913027 -456008 -423702 -413928 -544175
644871351543301300 -455958 -423741 -414032 -544225
644871351550689573 -455913 -423689 -414008 -544277
644871351558077846 -456017 -423684 -413981 -544298
644871351565466119 -455964 -423702 -413978 -544337
644871351572854392 -455917 -423610 -413961 -544308
644871351580242665 -455901 -423593 -413892 -544327
644871351587630938 -455930 -423656 -413936 -544327
644871351595019211 -455962 -423704 -413966 -544308
644871351602407484 -455881 -423741 -413999 -544263
644871351609795757 -455991 -423741 -413958 -544240
644871351617184030 -456058 -423779 -414139 -544246
644871351624572303 -456040 -423769 -414094 -544202
644871351631960576 -456105 -423824 -414249 -544328
644871351639302436 -456261 -423914 -414382 -544180
644871351646693440 -456275 -424058 -414314 -544258
644871351654084444 -456323 -424174 -414441 -544270
644871351661475448 -456434 -424205 -414561 -544306
644871351668866452 -456437 -424227 -414524 -544344
644871351676257456 -456500 -424306 -414563 -544243
644871351683648460 -456585 -424377 -414652 -544319
644871351691039464 -456621 -424464 -414781 -544296
644871351698430468 -456667 -424523 -414833 -544257
644871351705821472 -456723 -424582 -414885 -544310
644871351713212476 -456710 -424674 -415004 -544279
644871351720603480 -456723 -424695 -415008 -544345
644871351727994484 -456829 -424778 -414992 -544336
644871351735385488 -456847 -424765 -415048 -544330
644871351742776492 -456844 -424743 -415076 -544297
644871351750167496 -456803 -424853 -415147 -544291
644871351757558500 -456957 -424849 -415241 -544383
644871351764949504 -457050 -424942 -415193 -544292
644871351772386943 -457018 -425134 -415349 -544218
644871351779775216 -456938 -425088 -415369 -544208
644871351787163489 -456974 -425029 -415274 -544188
644871351794551762 -457052 -424981 -415332 -544211
644871351801940035 -456995 -425038 -415349 -544311
644871351809328308 -457085 -425073 -415415 -544299
644871351816716581 -457085 -425068 -415411 -544320
644871351824104854 -457155 -425179 -415398 -544264
644871351831493127 -457114 -425113 -415387 -544268
644871351838881400 -457132 -425150 -415459 -544253
644871351846269673 -457093 -425099 -415498 -544277
644871351853657946 -457081 -425089 -415495 -544175
644871351861046219 -457094 -425188 -415615 -544202
644871351868434492 -457169 -425176 -415517 -544264
644871351875822765 -457127 -425190 -415637 -544242
644871351883211038 -457109 -425171 -415589 -544255
644871351890599311 -457165 -425166 -415565 -544272
644871351897987584 -457154 -425209 -415618 -544232
644871351905344914 -457275 -425298 -415770 -544442
644871351912735008 -457286 -425303 -415637 -544418
644871351920125102 -457240 -425249 -415645 -544290
644871351927515196 -457267 -425291 -415655 -544252
644871351934905290 -457264 -425322 -415724 -544221
644871351942295384 -457309 -425372 -415744 -544309
644871351949685478 -457373 -425369 -415739 -544183
644871351957075572 -457406 -425392 -415730 -544259
644871351964465666 -457350 -425419 -415848 -544272
644871351971855760 -457366 -425431 -415807 -544340
644871351979245854 -457421 -425488 -415889 -544343
644871351986635948 -457389 -425577 -415886 -544246
644871351994026042 -457438 -425576 -415874 -544256
644871352001416136 -457446 -425515 -415893 -544277
644871352008806230 -457470 -425579 -415870 -544232
644871352016196324 -457445 -425617 -415977 -544332
644871352023586418 -457565 -425656 -416010 -544325
644871352030976512 -457535 -425615 -415940 -544298
644871352038366610 -457495 -425670 -416119 -544341
644871352045756704 -457506 -425636 -416113 -544252
644871352053146798 -457494 -425681 -416062 -544232
644871352060536892 -457424 -425699 -415973 -544225
644871352067926986 -457420 -425690 -416039 -544203
644871352075317080 -457538 -425613 -416084 -544184
644871352082707174 -457480 -425641 -416060 -544183
644871352090097268 -457526 -425686 -416085 -544284
644871352097487362 -457573 -425621 -416055 -544237
644871352104877456 -457513 -425645 -416070 -544208
644871352112267550 -457591 -425693 -416075 -544267
644871352119657644 -457554 -425769 -416076 -544336
644871352127047738 -457497 -425655 -416039 -544318
644871352134437832 -457505 -425654 -416051 -544360
644871352141827926 -457551 -425773 -416109 -544351
644871352149218020 -457512 -425688 -416121 -544272
644871352156608114 -457514 -425657 -416110 -544249
644871352163998208 -457494 -425684 -416100 -544170
644871352171403776 -457437 -425551 -416109 -544194
644871352178792960 -457469 -425546 -416077 -544165
644871352186182144 -457519 -425637 -416018 -544152
644871352193571328 -457394 -425691 -416046 -544174
644871352200960512 -457540 -425587 -416059 -544228
644871352208349696 -457486 -425683 -416072 -544330
644871352215738880 -457497 -425620 -416033 -544345
644871352223128064 -457485 -425651 -416062 -544253
644871352230517248 -457406 -425629 -416097 -544256
644871352237906432 -457488 -425732 -416063 -544228
644871352245295616 -457552 -425733 -416085 -544219
644871352252684800 -457554 -425712 -416188 -544147
644871352260073984 -457580 -425632 -416043 -544225
644871352267463168 -457521 -425716 -416058 -544233
644871352274852352 -457568 -425621 -416082 -544205
644871352282241536 -457469 -425701 -416157 -544236
644871352289630720 -457442 -425658 -416048 -544222
644871352297019904 -457569 -425611 -416121 -544272
644871352304393618 -457606 -425785 -416221 -544190
644871352311783712 -457633 -425763 -416246 -544150
644871352319173806 -457627 -425763 -416179 -544161
644871352326563900 -457591 -425662 -416225 -544264
644871352333953994 -457514 -425622 -416145 -544215
644871352341344088 -457591 -425593 -416118 -544245
644871352348734182 -457501 -425594 -416059 -544280
644871352356124276 -457519 -425685 -416127 -544267
644871352363514370 -457572 -425670 -416177 -544256
644871352370904464 -457497 -425628 -416065 -544173
644871352378294558 -457471 -425703 -416080 -544215
644871352385684652 -457578 -425682 -416162 -544301
644871352393074746 -457508 -425593 -416149 -544255
644871352400464840 -457483 -425568 -416081 -544291
644871352407854934 -457437 -425575 -416025 -544185
644871352415245028 -457516 -425654 -416011 -544235
644871352422635122 -457579 -425727 -416041 -544199
644871352430025216 -457516 -425634 -416044 -544237
644871352437415314 -457638 -425644 -416094 -544302
644871352444805408 -457608 -425546 -416048 -544274
644871352452195502 -457555 -425553 -416005 -544199
644871352459585596 -457513 -425515 -416039 -544242
644871352466975690 -457519 -425587 -416084 -544361
644871352474365784 -457646 -425613 -416094 -544220
644871352481755878 -457555 -425539 -416101 -544283
644871352489145972 -457545 -425500 -416085 -544236
644871352496536066 -457585 -425494 -416043 -544356
644871352503926160 -457525 -425520 -416009 -544283
644871352511316254 -457583 -425536 -415993 -544308
644871352518706348 -457542 -425535 -416037 -544213
644871352526096442 -457477 -425592 -415997 -544221
644871352533486536 -457548 -425493 -416037 -544280
644871352540876630 -457479 -425484 -416092 -544254
644871352548266724 -457529 -425527 -416043 -544280
644871352555656818 -457575 -425571 -416073 -544337
644871352563046912 -457518 -425604 -415990 -544302
644871352570452480 -457561 -425723 -416091 -544356
644871352577841664 -457538 -425683 -416123 -544317
644871352585230848 -457631 -425759 -416143 -544257
644871352592620032 -457631 -425768 -416276 -544302
644871352600009216 -457645 -425790 -416471 -544178
644871352607398400 -457773 -425913 -416489 -544190
644871352614787584 -457730 -426074 -416551 -544212
644871352622176768 -457958 -426174 -416629 -544230
644871352629565952 -458031 -426254 -416742 -544298
644871352636955136 -458065 -426270 -416697 -544172
644871352644344320 -458116 -426418 -416865 -544168
644871352651733504 -458178 -426409 -416931 -544225
644871352659122688 -458267 -426601 -417088 -544184
644871352666511872 -458363 -426631 -417106 -544187
644871352673901056 -458381 -426773 -417187 -544131
644871352681290240 -458483 -426729 -417325 -544260
644871352688679424 -458524 -426830 -417300 -544269
644871352696068608 -458523 -426961 -417437 -544277
644871352703442322 -458597 -426993 -417546 -544252
644871352710832416 -458610 -427078 -417598 -544231
644871352718222510 -458684 -427134 -417669 -544275
644871352725612604 -458752 -427058 -417787 -544209
644871352733002698 -458758 -427169 -417703 -544231
644871352740392792 -458821 -427207 -417789 -544253
644871352747782886 -458874 -427249 -417875 -544313
644871352755172980 -458876 -427310 -417902 -544252
644871352762563074 -458951 -427365 -417853 -544257
644871352769953168 -458958 -427364 -417882 -544218
644871352777343262 -458978 -427490 -417976 -544285
644871352784733356 -459020 -427559 -418008 -544352
644871352792123450 -459158 -427562 -418115 -544319
644871352799513544 -459089 -427672 -418086 -544269
644871352806903638 -459093 -427521 -418171 -544292
644871352814293732 -459086 -427582 -418115 -544241
644871352821683826 -459126 -427646 -418138 -544314
644871352829073920 -459146 -427636 -418236 -544303
644871352836510445 -459175 -427543 -418210 -544332
644871352843897808 -459152 -427629 -418199 -544297
644871352851285171 -459264 -427500 -418343 -544208
644871352858672534 -459247 -427679 -418410 -544231
644871352866059897 -459180 -427683 -418397 -544330
644871352873447260 -459185 -427735 -418332 -544299
644871352880834623 -459233 -427833 -418429 -544394
644871352888221986 -459230 -427835 -418417 -544313
644871352895609349 -459277 -427837 -418388 -544342
644871352902996712 -459298 -427897 -418450 -544319
644871352910384075 -459300 -427835 -418480 -544349
644871352917771438 -459312 -427926 -418549 -544347
644871352925158801 -459315 -427920 -418524 -544248
644871352932546164 -459311 -428015 -418634 -544292
644871352939933527 -459423 -428019 -418527 -544347
644871352947320890 -459501 -428007 -418676 -544352
644871352954708253 -459472 -428079 -418649 -544299
644871352962095616 -459395 -428109 -418648 -544265
644871352969405622 -459455 -428137 -418581 -544194
644871352976797536 -459513 -428180 -418631 -544289
644871352984189450 -459508 -428128 -418712 -544270
644871352991581364 -459545 -428133 -418705 -544253
644871352998973278 -459480 -428119 -418764 -544204
644871353006365192 -459486 -428149 -418726 -544198
644871353013757106 -459556 -428182 -418777 -544276
644871353021149020 -459576 -428196 -418653 -544280
644871353028540934 -459501 -428209 -418728 -544264
644871353035932848 -459540 -428199 -418706 -544282
644871353043324762 -459453 -428218 -418708 -544283
644871353050716676 -459492 -428184 -418788 -544237
644871353058108590 -459519 -428242 -418772 -544268
644871353065500504 -459543 -428235 -418804 -544282
644871353072892418 -459521 -428233 -418782 -544220
644871353080284332 -459506 -428159 -418814 -544202
644871353087676246 -459601 -428121 -418822 -544240
644871353095068160 -459517 -428120 -418775 -544282
644871353102491026 -459582 -428257 -419162 -544315
644871353109881120 -459583 -428199 -418908 -544289
644871353117271214 -459533 -428241 -418878 -544192
644871353124661308 -459523 -428223 -418819 -544194
644871353132051402 -459543 -428199 -418665 -544186
644871353139441496 -459470 -428159 -418780 -544265
644871353146831590 -459527 -428155 -418683 -544264
644871353154221684 -459493 -428133 -418793 -544259
644871353161611778 -459558 -428116 -418786 -544258
644871353169001872 -459499 -428063 -418747 -544271
644871353176391966 -459507 -428119 -418691 -544258
644871353183782060 -459544 -428193 -418713 -544219
644871353191172154 -459506 -428125 -418598 -544238
644871353198562248 -459468 -428080 -418665 -544281
644871353205952342 -459408 -428052 -418660 -544216
644871353213342436 -459383 -428015 -418594 -544178
644871353220732530 -459435 -427940 -418629 -544223
644871353228122624 -459403 -427993 -418541 -544175
644871353235543679 -459467 -428059 -418533 -544310
644871353242931952 -459396 -427943 -418598 -544347
644871353250320225 -459496 -427998 -418524 -544232
644871353257708498 -459407 -428032 -418565 -544315
644871353265096771 -459410 -427925 -418570 -544277
644871353272485044 -459370 -427973 -418527 -544275
644871353279873317 -459404 -428017 -418612 -544331
644871353287261590 -459423 -427974 -418531 -544282
644871353294649863 -459373 -427982 -418555 -544326
644871353302038136 -459323 -427901 -418534 -544342
644871353309426409 -459294 -427918 -418498 -544239
644871353316814682 -459350 -427851 -418486 -544277
644871353324202955 -459357 -427909 -418482 -544304
644871353331591228 -459403 -427887 -418509 -544338
644871353338979501 -459346 -427801 -418513 -544275
644871353346367774 -459360 -427850 -418387 -544272
644871353353756047 -459336 -427818 -418445 -544266
644871353361144320 -459335 -427782 -418415 -544284
644871353368486180 -459476 -427784 -418379 -544301
644871353375877184 -459449 -427787 -418353 -544328
644871353383268188 -459322 -427824 -418366 -544290
644871353390659192 -459361 -427722 -418363 -544305
644871353398050196 -459319 -427750 -418393 -544266
644871353405441200 -459202 -427699 -418379 -544220
644871353412832204 -459226 -427632 -418287 -544167
644871353420223208 -459243 -427760 -418319 -544200
644871353427614212 -459226 -427723 -418388 -544162
644871353435005216 -459157 -427748 -418300 -544235
644871353442396220 -459190 -427791 -418287 -544119
644871353449787224 -459144 -427618 -418262 -544151
644871353457178228 -459127 -427654 -418214 -544219
644871353464569232 -459093 -427651 -418195 -544233
644871353471960236 -459122 -427597 -418149 -544275
644871353479351240 -459196 -427606 -418189 -544288
644871353486742244 -459135 -427522 -418087 -544233
644871353494133248 -459171 -427607 -418182 -544298
644871353501570687 -459174 -427584 -418075 -544441
644871353508958960 -459184 -427667 -418175 -544345
644871353516347233 -459277 -427572 -418185 -544287
644871353523735506 -459244 -427660 -418175 -544296
644871353531123779 -459316 -427697 -418291 -544306
644871353538512052 -459442 -427846 -418324 -544336
644871353545900325 -459403 -427916 -418440 -544324
644871353553288598 -459500 -428011 -418515 -544358
644871353560676871 -459566 -428115 -418636 -544258
644871353568065144 -459688 -428213 -418757 -544275
644871353575453417 -459730 -428245 -418776 -544251
644871353582841690 -459764 -428460 -418921 -544288
644871353590229963 -459781 -428517 -418996 -544266
644871353597618236 -459896 -428548 -419104 -544268
644871353605006509 -460030 -428523 -419164 -544267
644871353612394782 -460040 -428642 -419194 -544202
644871353619783055 -460100 -428770 -419232 -544282
644871353627171328 -460118 -428759 -419393 -544291
644871353634528658 -460030 -428698 -419258 -544184
644871353641918752 -460131 -428845 -419373 -544226
644871353649308846 -460287 -428893 -419532 -544267
644871353656698940 -460233 -428958 -419571 -544246
644871353664089034 -460304 -428958 -419704 -544248
644871353671479128 -460419 -429090 -419656 -544203
644871353678869222 -460345 -429153 -419670 -544169
644871353686259316 -460405 -429151 -419805 -544203
644871353693649410 -460473 -429253 -419820 -544260
644871353701039504 -460390 -429293 -419737 -544158
644871353708429598 -460494 -429252 -419844 -544243
644871353715819692 -460567 -429224 -419879 -544279
644871353723209786 -460533 -429353 -419918 -544222
644871353730599880 -460647 -429319 -419952 -544201
644871353737989974 -460597 -429384 -419873 -544249
644871353745380068 -460596 -429349 -419840 -544231
644871353752770162 -460679 -429354 -419934 -544202
644871353760160256 -460662 -429422 -420023 -544294
644871353767596781 -460575 -429395 -419911 -544362
644871353774984144 -460589 -429418 -420008 -544260
644871353782371507 -460665 -429493 -420105 -544305
644871353789758870 -460679 -429525 -420107 -544226
644871353797146233 -460681 -429595 -420160 -544282
644871353804533596 -460682 -429617 -420153 -544326
644871353811920959 -460751 -429581 -420209 -544243
644871353819308322 -460742 -429731 -420248 -544256
644871353826695685 -460845 -429725 -420348 -544384
644871353834083048 -460844 -429731 -420294 -544382
644871353841470411 -460850 -429745 -420357 -544253
644871353848857774 -460768 -429759 -420388 -544404
644871353856245137 -460830 -429757 -420313 -544305
644871353863632500 -460869 -429807 -420418 -544328
644871353871019863 -460916 -429862 -420481 -544342
644871353878407226 -460983 -429870 -420581 -544348
644871353885794589 -461033 -429995 -420508 -544293
644871353893181952 -461082 -429989 -420561 -544268
644871353900491958 -461131 -430038 -420628 -544285
644871353907883872 -461110 -430098 -420588 -544294
644871353915275786 -461102 -430055 -420601 -544310
644871353922667700 -461066 -430155 -420611 -544230
644871353930059614 -461040 -430221 -420689 -544247
644871353937451528 -461127 -430191 -420784 -544255
644871353944843442 -461123 -430218 -420673 -544317
644871353952235356 -461216 -430263 -420754 -544321
644871353959627270 -461158 -430229 -420836 -544290
644871353967019184 -461212 -430188 -420857 -544298
644871353974411098 -461178 -430245 -420825 -544321
644871353981803012 -461237 -430216 -420792 -544260
644871353989194926 -461240 -430272 -420859 -544354
644871353996586840 -461161 -430277 -420839 -544265
644871354003978754 -461182 -430354 -420857 -544289
644871354011370668 -461302 -430298 -420911 -544276
644871354018762582 -461198 -430282 -420850 -544146
644871354026154496 -461208 -430315 -420851 -544285
644871354033608319 -461124 -430317 -420762 -544430
644871354040996592 -461181 -430245 -420846 -544371
644871354048384865 -461287 -430221 -420772 -544313
644871354055773138 -461213 -430297 -420826 -544274
644871354063161411 -461198 -430361 -420828 -544222
644871354070549684 -461109 -430320 -420726 -544285
644871354077937957 -461199 -430328 -420785 -544313
644871354085326230 -461259 -430209 -420768 -544366
644871354092714503 -461210 -430293 -420684 -544355
644871354100102776 -461171 -430184 -420775 -544340
644871354107491049 -461137 -430239 -420798 -544301
644871354114879322 -461111 -430222 -420758 -544241
644871354122267595 -461141 -430281 -420846 -544249
644871354129655868 -461192 -430174 -420854 -544266
644871354137044141 -461272 -430222 -420795 -544232
644871354144432414 -461173 -430230 -420858 -544192
644871354151820687 -461173 -430270 -420889 -544352
644871354159208960 -461226 -430202 -420828 -544285
644871354166581760 -460969 -430327 -420875 -544137
644871354173970944 -461117 -430258 -420977 -544255
644871354181360128 -461195 -430276 -420948 -544345
644871354188749312 -461199 -430278 -420921 -544343
644871354196138496 -461144 -430221 -420924 -544341
644871354203527680 -461089 -430310 -420934 -544325
644871354210916864 -461172 -430262 -420836 -544317
644871354218306048 -461189 -430259 -420835 -544354
644871354225695232 -461171 -430262 -420838 -544287
644871354233084416 -461204 -430269 -420867 -544138
644871354240473600 -461153 -430270 -420829 -544289
644871354247862784 -461068 -430137 -420813 -544394
644871354255251968 -461120 -430132 -420820 -544322
644871354262641152 -461071 -430192 -420815 -544315
644871354270030336 -461040 -430156 -420783 -544271
644871354277419520 -461089 -430110 -420700 -544287
644871354284808704 -461164 -430114 -420742 -544267
644871354292197888 -461037 -430123 -420777 -544350
644871354299571602 -461170 -430163 -420723 -544340
644871354306961696 -461072 -430196 -420755 -544323
644871354314351790 -461031 -430118 -420788 -544248
644871354321741884 -460936 -430026 -420619 -544320
644871354329131978 -461024 -429974 -420597 -544258
644871354336522072 -461025 -430010 -420653 -544236
644871354343912166 -460974 -430061 -420511 -544297
644871354351302260 -461014 -430056 -420535 -544216
644871354358692354 -461029 -429949 -420548 -544246
644871354366082448 -461050 -429953 -420502 -544303
644871354373472542 -460984 -429858 -420520 -544214
644871354380862636 -461002 -429842 -420513 -544216
644871354388252730 -461007 -429875 -420468 -544335
644871354395642824 -460886 -429864 -420444 -544375
644871354403032918 -460975 -429814 -420478 -544339
644871354410423012 -460854 -429906 -420503 -544271
644871354417813106 -460782 -429759 -420381 -544237
644871354425203200 -460880 -429725 -420401 -544230
644871354432608768 -460975 -429714 -420472 -544192
644871354439997952 -461001 -429820 -420405 -544151
644871354447387136 -460963 -429877 -420396 -544195
644871354454776320 -460923 -429897 -420464 -544281
644871354462165504 -461083 -429910 -420506 -544288
644871354469554688 -461165 -430003 -420622 -544389
644871354476943872 -461106 -429986 -420536 -544306
644871354484333056 -461147 -430098 -420581 -544314
644871354491722240 -461203 -430167 -420667 -544284
644871354499111424 -461334 -430296 -420790 -544228
644871354506500608 -461412 -430384 -420876 -544191
644871354513889792 -461407 -430409 -420998 -544224
644871354521278976 -461509 -430561 -421067 -544150
644871354528668160 -461501 -430584 -421162 -544199
644871354536057344 -461712 -430645 -421272 -544226
644871354543446528 -461847 -430855 -421384 -544299
644871354550835712 -461769 -430825 -421508 -544268
644871354558224896 -461894 -430894 -421533 -544224
644871354565660507 -461983 -431084 -421539 -544273
644871354573046960 -461972 -431039 -421613 -544373
644871354580433413 -461903 -431139 -421756 -544280
644871354587819866 -462010 -431248 -421811 -544324
644871354595206319 -462045 -431191 -421749 -544224
644871354602592772 -461996 -431245 -421892 -544211
644871354609979225 -462192 -431329 -421951 -544218
644871354617365678 -462159 -431328 -421977 -544144
644871354624752131 -462127 -431409 -422020 -544158
644871354632138584 -462241 -431471 -422054 -544253
644871354639525037 -462219 -431533 -422165 -544328
644871354646911490 -462265 -431553 -422258 -544421
644871354654297943 -462283 -431608 -422251 -544324
644871354661684396 -462365 -431577 -422209 -544281
644871354669070849 -462274 -431530 -422278 -544300
644871354676457302 -462427 -431573 -422308 -544348
644871354683843755 -462404 -431559 -422237 -544327
644871354691230208 -462402 -431640 -422317 -544320
644871354698523830 -462411 -431509 -422278 -544248
644871354705915744 -462363 -431595 -422229 -544259
644871354713307658 -462370 -431677 -422376 -544300
644871354720699572 -462407 -431688 -422403 -544318
644871354728091486 -462388 -431762 -422443 -544277
644871354735483400 -462424 -431748 -422516 -544226
644871354742875314 -462465 -431729 -422460 -544217
644871354750267228 -462479 -431767 -422467 -544266
644871354757659142 -462496 -431823 -422390 -544239
644871354765051056 -462461 -431828 -422445 -544198
644871354772442970 -462505 -431855 -422468 -544178
644871354779834884 -462577 -431935 -422564 -544248
644871354787226798 -462594 -431903 -422587 -544213
644871354794618712 -462619 -431821 -422580 -544143
644871354802010626 -462667 -431965 -422740 -544223
644871354809402540 -462678 -431980 -422678 -544247
644871354816794454 -462721 -432011 -422775 -544183
644871354824186368 -462739 -432167 -422865 -544151
644871354831593764 -462706 -432018 -422934 -544300
644871354838984768 -462696 -432104 -422925 -544260
644871354846375772 -462812 -432145 -422898 -544274
644871354853766776 -462722 -432065 -422892 -544276
644871354861157780 -462739 -432132 -422949 -544254
644871354868548784 -462834 -432147 -422950 -544229
644871354875939788 -462852 -432206 -423005 -544209
644871354883330792 -462943 -432259 -422953 -544284
644871354890721796 -462922 -432284 -422977 -544179
644871354898112800 -463025 -432239 -422969 -544254
644871354905503804 -462886 -432222 -422997 -544161
644871354912894808 -462956 -432286 -423068 -544205
644871354920285812 -462874 -432288 -423020 -544245
644871354927676816 -462955 -432324 -423071 -544270
644871354935067820 -463017 -432261 -423082 -544320
644871354942458824 -463001 -432355 -423074 -544304
644871354949849828 -462988 -432238 -423129 -544248
644871354957240832 -462997 -432352 -423123 -544358
644871354964678271 -463024 -432258 -423216 -544167
644871354972066544 -462973 -432358 -423097 -544277
644871354979454817 -462991 -432356 -423104 -544299
644871354986843090 -462898 -432202 -423068 -544213
644871354994231363 -462980 -432338 -423062 -544257
644871355001619636 -462996 -432308 -423146 -544316
644871355009007909 -462982 -432378 -423109 -544294
644871355016396182 -463033 -432363 -423073 -544301
644871355023784455 -463035 -432350 -423147 -544170
644871355031172728 -463115 -432347 -423176 -544164
644871355038561001 -463073 -432295 -423158 -544162
644871355045949274 -463115 -432279 -423194 -544213
644871355053337547 -463194 -432322 -423140 -544320
644871355060725820 -463074 -432349 -423242 -544262
644871355068114093 -463097 -432357 -423192 -544230
644871355075502366 -463065 -432279 -423137 -544276
644871355082890639 -463069 -432340 -423249 -544319
644871355090278912 -463065 -432345 -423228 -544277
644871355097667199 -463023 -432402 -423309 -544170
644871355105055472 -463062 -432480 -423183 -544199
644871355112443745 -463024 -432408 -423256 -544231
644871355119832018 -463001 -432345 -423191 -544126
644871355127220291 -463068 -432386 -423201 -544146
644871355134608564 -463075 -432357 -423269 -544167
644871355141996837 -463130 -432281 -423240 -544294
644871355149385110 -463134 -432349 -423178 -544299
644871355156773383 -463048 -432403 -423213 -544204
644871355164161656 -462993 -432417 -423129 -544240
644871355171549929 -462995 -432440 -423143 -544202
644871355178938202 -462973 -432273 -423176 -544195
644871355186326475 -463090 -432288 -423150 -544217
644871355193714748 -463071 -432289 -423158 -544267
644871355201103021 -462988 -432357 -423221 -544243
644871355208491294 -463058 -432286 -423215 -544192
644871355215879567 -463031 -432330 -423161 -544304
644871355223267840 -462991 -432300 -423145 -544224
644871355230609700 -462925 -432213 -423111 -544116
644871355238000704 -462933 -432245 -423119 -544186
644871355245391708 -462934 -432305 -423120 -544262
644871355252782712 -462972 -432251 -423123 -544221
644871355260173716 -462936 -432237 -423081 -544254
644871355267564720 -462950 -432261 -423081 -544303
644871355274955724 -462991 -432176 -423045 -544330
644871355282346728 -462926 -432204 -423043 -544367
644871355289737732 -462830 -432086 -423092 -544277
644871355297128736 -462930 -432169 -423069 -544251
644871355304519740 -462944 -432216 -423063 -544243
644871355311910744 -462899 -432096 -423028 -544308
644871355319301748 -462936 -432030 -422888 -544238
644871355326692752 -462862 -431981 -422962 -544285
644871355334083756 -462884 -432005 -422922 -544307
644871355341474760 -462753 -432072 -422825 -544172
644871355348865764 -462800 -432064 -422839 -544197
644871355356256768 -462815 -431952 -422785 -544198
644871355363725147 -462782 -431868 -422812 -544281
644871355371111600 -462781 -431925 -422852 -544358
644871355378498053 -462814 -432026 -422841 -544321
644871355385884506 -462864 -431965 -422891 -544309
644871355393270959 -462892 -432018 -422821 -544326
644871355400657412 -462891 -432050 -422876 -544253
644871355408043865 -462921 -432019 -422859 -544232
644871355415430318 -462892 -432122 -422979 -544251
644871355422816771 -463004 -432156 -423118 -544219
644871355430203224 -463104 -432315 -423132 -544290
644871355437589677 -463067 -432318 -423162 -544284
644871355444976130 -463173 -432303 -423256 -544280
644871355452362583 -463192 -432489 -423239 -544282
644871355459749036 -463381 -432509 -423351 -544279
644871355467135489 -463463 -432667 -423463 -544218
644871355474521942 -463475 -432683 -423564 -544156
644871355481908395 -463522 -432766 -423650 -544183
644871355489294848 -463535 -432840 -423784 -544266
644871355496619410 -463672 -432943 -423728 -544218
644871355504009504 -463664 -432953 -423849 -544228
644871355511399598 -463746 -433056 -423890 -544265
644871355518789692 -463763 -433071 -423859 -544217
644871355526179786 -463755 -433098 -423947 -544217
644871355533569880 -463717 -433087 -424010 -544197
644871355540959974 -463868 -433104 -423963 -544241
644871355548350068 -463864 -433209 -424129 -544236
644871355555740162 -463895 -433234 -424144 -544255
644871355563130256 -463954 -433232 -424193 -544239
644871355570520350 -464024 -433244 -424233 -544260
644871355577910444 -464032 -433294 -424255 -544243
644871355585300538 -464092 -433302 -424249 -544310
644871355592690632 -464051 -433306 -424268 -544212
644871355600080726 -464020 -433351 -424355 -544229
644871355607470820 -464073 -433381 -424352 -544226
644871355614860914 -463959 -433524 -424204 -544174
644871355622251008 -464072 -433583 -424318 -544233
644871355629641106 -464121 -433493 -424490 -544260
644871355637031200 -464145 -433513 -424437 -544267
644871355644421294 -464158 -433463 -424393 -544250
644871355651811388 -464074 -433481 -424401 -544253
644871355659201482 -464109 -433454 -424345 -544241
644871355666591576 -464207 -433462 -424383 -544229
644871355673981670 -464241 -433512 -424350 -544316
644871355681371764 -464193 -433535 -424444 -544330
644871355688761858 -464148 -433514 -424575 -544247
644871355696151952 -464116 -433548 -424469 -544315
644871355703542046 -464164 -433630 -424541 -544313
644871355710932140 -464174 -433650 -424574 -544169
644871355718322234 -464118 -433580 -424559 -544208
644871355725712328 -464214 -433664 -424546 -544332
644871355733102422 -464211 -433685 -424604 -544239
644871355740492516 -464282 -433682 -424616 -544190
644871355747882610 -464228 -433717 -424700 -544257
644871355755272704 -464273 -433717 -424723 -544265
644871355762678272 -464379 -433649 -424629 -544410
644871355770067456 -464331 -433775 -424693 -544321
644871355777456640 -464347 -433716 -424652 -544206
644871355784845824 -464335 -433766 -424657 -544199
644871355792235008 -464382 -433791 -424749 -544207
644871355799624192 -464393 -433826 -424792 -544212
644871355807013376 -464407 -433812 -424743 -544179
644871355814402560 -464496 -433839 -424854 -544190
644871355821791744 -464479 -433860 -424832 -544224
644871355829180928 -464471 -433946 -424783 -544186
644871355836570112 -464481 -433962 -424880 -544225
644871355843959296 -464567 -433920 -424837 -544225
644871355851348480 -464589 -433974 -424930 -544203
644871355858737664 -464540 -433979 -424868 -544169
644871355866126848 -464569 -433981 -424897 -544221
644871355873516032 -464534 -433977 -424948 -544239
644871355880905216 -464585 -434017 -424912 -544264
644871355888294400 -464541 -433940 -424911 -544289
644871355895683584 -464662 -433892 -424890 -544266
644871355903072768 -464633 -433846 -424868 -544231
644871355910461952 -464702 -433946 -424940 -544158
644871355917851136 -464658 -433943 -424940 -544250
644871355925240320 -464590 -433963 -424932 -544269
644871355932629504 -464640 -433983 -424990 -544229
644871355940018688 -464666 -434049 -424956 -544277
644871355947407872 -464670 -434004 -424972 -544251
644871355954797056 -464556 -434041 -425030 -544221
644871355962186240 -464646 -434000 -425026 -544052
644871355969575424 -464654 -433989 -425007 -544225
644871355976964608 -464660 -433980 -425022 -544156
644871355984353792 -464684 -434060 -425057 -544143
644871355991742976 -464606 -433983 -425033 -544198
644871355999132160 -464666 -434067 -425040 -544265
644871356006521344 -464634 -433979 -425078 -544284
644871356013910528 -464656 -434033 -425051 -544186
644871356021299712 -464619 -434057 -425065 -544232
644871356028688896 -464747 -434093 -424988 -544145
644871356036078080 -464737 -434104 -425031 -544188
644871356043467264 -464769 -434092 -425099 -544131
644871356050856448 -464730 -434120 -425145 -544319
644871356058245632 -464691 -434143 -425251 -544233
644871356065634816 -464717 -434198 -425185 -544214
644871356073024000 -464667 -434121 -425238 -544276
644871356080413184 -464821 -434190 -425236 -544245
644871356087802368 -464810 -434231 -425212 -544285
644871356095191552 -464898 -434226 -425268 -544315
644871356102580736 -464853 -434214 -425260 -544314
644871356109969920 -464906 -434205 -425262 -544266
644871356117359104 -464888 -434337 -425342 -544289
644871356124748288 -464892 -434375 -425419 -544325
644871356132137472 -464858 -434323 -425442 -544209
644871356139526656 -464950 -434246 -425381 -544234
644871356146915840 -464948 -434339 -425400 -544287
644871356154305024 -464968 -434400 -425541 -544269
644871356161694208 -465072 -434312 -425530 -544213
644871356169083392 -465043 -434417 -425547 -544232
644871356176472576 -465000 -434438 -425569 -544192
644871356183861760 -465002 -434451 -425533 -544304
644871356191250944 -464980 -434525 -425601 -544327
644871356198640128 -465035 -434557 -425675 -544319
644871356206029312 -465070 -434539 -425637 -544328
644871356213418496 -465083 -434663 -425710 -544354
644871356220807680 -465111 -434753 -425771 -544270
644871356228196864 -465115 -434731 -425735 -544304
644871356235586048 -465179 -434739 -425777 -544233
644871356242975232 -465112 -434676 -425952 -544147
644871356250364416 -465150 -434687 -425979 -544178
644871356257753600 -465182 -434718 -425923 -544253
644871356265142784 -465244 -434766 -425892 -544243
644871356272531968 -465179 -434776 -425868 -544213
644871356279921152 -465240 -434883 -425964 -544267
644871356287310336 -465395 -434961 -426115 -544330
644871356294668580 -465363 -435131 -426243 -544285
644871356302059584 -465413 -435100 -426276 -544218
644871356309450588 -465475 -435178 -426239 -544231
644871356316841592 -465568 -435363 -426430 -544246
644871356324232596 -465604 -435441 -426610 -544292
644871356331623600 -465674 -435589 -426724 -544306
644871356339014604 -465706 -435570 -426791 -544208
644871356346405608 -465835 -435665 -426893 -544325
644871356353796612 -465872 -435687 -426987 -544264
644871356361187616 -465896 -435774 -427073 -544235
644871356368578620 -465947 -435938 -427187 -544325
644871356375969624 -465969 -436012 -427291 -544272
644871356383360628 -466066 -436039 -427371 -544162
644871356390751632 -466113 -436229 -427507 -544272
644871356398142636 -466224 -436289 -427596 -544147
644871356405533640 -466204 -436285 -427597 -544206
644871356412924644 -466157 -436345 -427752 -544146
644871356420315648 -466142 -436363 -427809 -544151
644871356427768557 -466153 -436487 -427939 -544331
644871356435155920 -466194 -436521 -427994 -544141
644871356442543283 -466229 -436655 -428040 -544171
644871356449930646 -466247 -436668 -428107 -544240
644871356457318009 -466235 -436794 -428229 -544234
644871356464705372 -466306 -436880 -428241 -544282
644871356472092735 -466419 -437025 -428347 -544228
644871356479480098 -466447 -437140 -428448 -544182
644871356486867461 -466403 -437185 -428485 -544260
644871356494254824 -466515 -437272 -428645 -544202
644871356501642187 -466508 -437405 -428643 -544179
644871356509029550 -466638 -437478 -428777 -544161
644871356516416913 -466596 -437428 -428854 -544218
644871356523804276 -466603 -437539 -428934 -544212
644871356531191639 -466701 -437557 -428997 -544219
644871356538579002 -466724 -437560 -429305 -544270
644871356545966365 -466774 -437568 -429247 -544148
644871356553353728 -466738 -437558 -429253 -544119
644871356560679204 -466954 -437549 -429323 -544268
644871356568070208 -466882 -437511 -429282 -544188
644871356575461212 -466807 -437519 -429324 -544129
644871356582852216 -466901 -437419 -429279 -544156
644871356590243220 -466877 -437468 -429261 -544139
644871356597634224 -466896 -437410 -429228 -544088
644871356605025228 -466874 -437359 -429107 -544139
644871356612416232 -466897 -437271 -429122 -544172
644871356619807236 -466859 -437239 -428979 -544124
644871356627198240 -466913 -437291 -429080 -544129
644871356634589244 -466956 -437210 -429024 -544219
644871356641980248 -466843 -437162 -428933 -544214
644871356649371252 -466928 -437070 -428890 -544140
644871356656762256 -466887 -437052 -428865 -544134
644871356664153260 -466993 -437164 -428890 -544122
644871356671544264 -467037 -437047 -428820 -544058
644871356678935268 -467088 -437062 -428773 -544095
644871356686326272 -467056 -437170 -428747 -544132
644871356693748224 -467188 -437267 -428784 -544204
644871356701137408 -467147 -437125 -428761 -544216
644871356708526592 -467140 -437141 -428742 -544169
644871356715915776 -467021 -437052 -428773 -544173
644871356723304960 -467064 -437056 -428723 -544173
644871356730694144 -467114 -437030 -428645 -544170
644871356738083328 -467088 -437011 -428578 -544068
644871356745472512 -467162 -436908 -428597 -544098
644871356752861696 -467197 -436903 -428556 -544153
644871356760250880 -467204 -436912 -428658 -544221
644871356767640064 -467134 -436913 -428576 -544058
644871356775029248 -467178 -436864 -428598 -544054
644871356782418432 -467298 -436814 -428537 -544129
644871356789807616 -467256 -436878 -428468 -544089
644871356797196800 -467199 -436795 -428494 -544165
644871356804585984 -467220 -436689 -428380 -544128
644871356811975168 -467192 -436702 -428386 -544216
644871356819364352 -467193 -436607 -428360 -544241
644871356826784493 -467211 -436554 -428397 -544238
644871356834171856 -467192 -436606 -428342 -544192
644871356841559219 -467251 -436606 -428271 -544209
644871356848946582 -467233 -436657 -428206 -544151
644871356856333945 -467311 -436561 -428221 -544170
644871356863721308 -467254 -436463 -428063 -544072
644871356871108671 -467263 -436526 -428029 -544180
644871356878496034 -467299 -436475 -428071 -544083
644871356885883397 -467233 -436393 -427937 -544220
644871356893270760 -467297 -436315 -427944 -544232
644871356900658123 -467261 -436296 -427858 -544177
644871356908045486 -467189 -436235 -427870 -544129
644871356915432849 -467311 -436194 -427749 -544133
644871356922820212 -467187 -436277 -427678 -544111
644871356930207575 -467228 -436143 -427579 -544152
644871356937594938 -467211 -436151 -427473 -544105
644871356944982301 -467163 -436120 -427570 -544135
644871356952369664 -467301 -436100 -427555 -544222
644871356959695140 -467347 -436171 -427432 -544246
644871356967086144 -467332 -436199 -427406 -544153
644871356974477148 -467433 -436225 -427512 -544121
644871356981868152 -467367 -436297 -427540 -544180
644871356989259156 -467453 -436284 -427534 -544121
644871356996650160 -467601 -436389 -427459 -544340
644871357004041164 -467542 -436407 -427433 -544219
644871357011432168 -467639 -436489 -427576 -544158
644871357018823172 -467660 -436544 -427573 -544165
644871357026214176 -467621 -436562 -427546 -544089
644871357033605180 -467641 -436596 -427510 -544153
644871357040996184 -467773 -436657 -427590 -544104
644871357048387188 -467716 -436713 -427562 -544110
644871357055778192 -467683 -436791 -427514 -544144
644871357063169196 -467861 -436736 -427651 -544104
644871357070560200 -467846 -436748 -427589 -544067
644871357077951204 -467828 -436833 -427671 -544175
644871357085342208 -467945 -436809 -427658 -544305
644871357092764160 -467832 -437025 -427779 -544188
644871357100153344 -467789 -437010 -427734 -544212
644871357107542528 -467860 -437013 -427682 -544179
644871357114931712 -467864 -436978 -427733 -544104
644871357122320896 -467965 -437020 -427699 -544115
644871357129710080 -468032 -437056 -427711 -544071
644871357137099264 -468129 -437181 -427789 -544114
644871357144488448 -468095 -437172 -427839 -544141
644871357151877632 -468200 -437249 -428025 -544208
644871357159266816 -468183 -437319 -428171 -544177
644871357166656000 -468286 -437367 -428205 -544211
644871357174045184 -468417 -437425 -428327 -544225
644871357181434368 -468520 -437517 -428431 -544233
644871357188823552 -468588 -437496 -428491 -544150
644871357196212736 -468715 -437571 -428586 -544064
644871357203601920 -468696 -437566 -428635 -544068
644871357210991104 -468769 -437630 -428692 -544113
644871357218380288 -468877 -437637 -428796 -544124
644871357225769472 -468966 -437822 -428814 -544018
644871357233158656 -469006 -437936 -428934 -544042
644871357240547840 -469053 -437910 -428935 -544035
644871357247937024 -468984 -438029 -429017 -544121
644871357255326208 -469055 -437939 -429149 -544180
644871357262715392 -469182 -438022 -429174 -544133
644871357270104576 -469139 -438075 -429237 -544112
644871357277493760 -469180 -438104 -429200 -544121
644871357284882944 -469156 -438032 -429220 -544139
644871357292272128 -469231 -438117 -429150 -544131
644871357299661312 -469225 -438124 -429253 -544041
644871357307050496 -469216 -438170 -429224 -544114
644871357314439680 -469264 -438214 -429324 -544063
644871357321828864 -469249 -438203 -429330 -544257
644871357329218048 -469225 -438196 -429369 -544220
644871357336607232 -469162 -438135 -429348 -544024
644871357343996416 -469082 -438121 -429324 -544040
644871357351385600 -469102 -438097 -429282 -544127
644871357358774784 -468970 -437956 -429289 -544155
644871357366163968 -468885 -437953 -429220 -544116
644871357373553152 -468888 -437956 -429190 -544107
644871357380942336 -468894 -437951 -429201 -544251
644871357388331520 -468860 -437917 -429190 -544224
644871357395720704 -468808 -437870 -429168 -544233
644871357403109888 -468792 -437878 -429071 -544197
644871357410499072 -468696 -437802 -429030 -544185
644871357417888256 -468576 -437728 -428951 -544110
644871357425277440 -468586 -437711 -428929 -544148
644871357432666624 -468526 -437724 -428935 -544153
644871357440055808 -468464 -437682 -428838 -544195
644871357447444992 -468492 -437623 -428844 -544144
644871357454834176 -468410 -437509 -428722 -544213
644871357462223360 -468349 -437479 -428810 -544169
644871357469612544 -468332 -437504 -428759 -544151
644871357477001728 -468325 -437485 -428689 -544132
644871357484390912 -468290 -437430 -428618 -544138
644871357491749156 -468152 -437556 -428540 -544173
644871357499140160 -468106 -437544 -428581 -544124
644871357506531164 -468130 -437507 -428481 -544114
644871357513922168 -468110 -437614 -428533 -544174
644871357521313172 -468091 -437546 -428559 -544219
644871357528704176 -468079 -437512 -428392 -544143
644871357536095180 -468033 -437451 -428374 -544153
644871357543486184 -468015 -437481 -428415 -544158
644871357550877188 -468016 -437507 -428438 -544249
644871357558268192 -467970 -437566 -428381 -544204
644871357565659196 -467940 -437572 -428434 -544168
644871357573050200 -468000 -437491 -428388 -544137
644871357580441204 -467829 -437588 -428431 -544085
644871357587832208 -467894 -437575 -428419 -544104
644871357595223212 -467893 -437568 -428403 -544048
644871357602614216 -467884 -437600 -428402 -544211
644871357610005220 -467887 -437598 -428500 -544207
644871357617396224 -467879 -437594 -428421 -544280
644871357624849133 -467949 -437680 -428632 -544105
644871357632236496 -467964 -437629 -428570 -544058
644871357639623859 -467874 -437660 -428496 -544087
644871357647011222 -467731 -437629 -428531 -544181
644871357654398585 -467792 -437614 -428484 -544171
644871357661785948 -467767 -437623 -428542 -544166
644871357669173311 -467716 -437634 -428596 -544157
644871357676560674 -467694 -437630 -428495 -544107
644871357683948037 -467682 -437596 -428521 -544032
644871357691335400 -467613 -437553 -428590 -544037
644871357698722763 -467692 -437623 -428600 -544077
644871357706110126 -467600 -437582 -428515 -544078
644871357713497489 -467618 -437605 -428571 -544143
644871357720884852 -467572 -437677 -428584 -544148
644871357728272215 -467613 -437659 -428619 -544201
644871357735659578 -467558 -437571 -428587 -544185
644871357743046941 -467566 -437576 -428528 -544134
644871357750434304 -467575 -437700 -428637 -544187
644871357757821677 -467554 -437609 -428563 -544207
644871357765209040 -467517 -437663 -428624 -544162
644871357772596403 -467561 -437665 -428573 -544222
644871357779983766 -467567 -437776 -428510 -544115
644871357787371129 -467428 -437696 -428544 -544065
644871357794758492 -467401 -437617 -428599 -544175
644871357802145855 -467442 -437648 -428586 -544183
644871357809533218 -467423 -437718 -428620 -544252
644871357816920581 -467384 -437639 -428684 -544163
644871357824307944 -467479 -437761 -428703 -544150
644871357831695307 -467430 -437707 -428606 -544141
644871357839082670 -467390 -437636 -428600 -544196
644871357846470033 -467389 -437717 -428651 -544181
644871357853857396 -467401 -437619 -428701 -544225
644871357861244759 -467364 -437658 -428638 -544221
644871357868632122 -467364 -437666 -428718 -544281
644871357876019485 -467290 -437667 -428624 -544123
644871357883406848 -467283 -437632 -428649 -544194
644871357890701384 -467393 -437652 -428556 -544229
644871357898094208 -467242 -437562 -428569 -544160
644871357905487032 -467249 -437633 -428551 -544223
644871357912879856 -467100 -437488 -428519 -544224
644871357920272680 -467133 -437478 -428478 -544239
644871357927665504 -467211 -437510 -428538 -544214
644871357935058328 -467222 -437554 -428525 -544194
644871357942451152 -467178 -437547 -428521 -544199
644871357949843976 -467267 -437562 -428587 -544083
644871357957236800 -467208 -437507 -428525 -544188
644871357964629624 -467265 -437577 -428633 -544174
644871357972022448 -467303 -437648 -428738 -544158
644871357979415272 -467383 -437628 -428754 -544275
644871357986808096 -467400 -437742 -428840 -544285
644871357994200920 -467440 -437747 -428939 -544230
644871358001593744 -467516 -437840 -428907 -544282
644871358008986568 -467534 -437994 -429098 -544306
644871358016379392 -467639 -438051 -429231 -544197
644871358023834112 -467701 -438185 -429035 -544217
644871358031223296 -467686 -438220 -429185 -544213
644871358038612480 -467783 -438334 -429239 -544189
644871358046001664 -467776 -438468 -429350 -544206
644871358053390848 -467869 -438416 -429355 -544162
644871358060780032 -467938 -438578 -429367 -544194
644871358068169216 -468032 -438609 -429502 -544187
644871358075558400 -468134 -438737 -429607 -544218
644871358082947584 -468204 -438697 -429579 -544243
644871358090336768 -468257 -438788 -429604 -544262
644871358097725952 -468199 -438905 -429637 -544216
644871358105115136 -468319 -438918 -429722 -544240
644871358112504320 -468370 -438959 -429715 -544214
644871358119893504 -468429 -439024 -429814 -544246
644871358127282688 -468466 -439030 -429890 -544260
644871358134671872 -468445 -439114 -429849 -544190
644871358142061056 -468461 -439124 -429903 -544240
644871358149450240 -468505 -439152 -429879 -544162
644871358156839424 -468549 -439256 -430091 -544076
644871358164228608 -468576 -439337 -430082 -544130
644871358171617792 -468710 -439290 -430132 -544123
644871358179006976 -468652 -439322 -430056 -544201
644871358186396160 -468733 -439417 -430150 -544200
644871358193785344 -468655 -439354 -430101 -544046
644871358201174528 -468654 -439392 -430139 -544065
644871358208563712 -468702 -439376 -430240 -544134
644871358215952896 -468859 -439433 -430283 -544220
644871358223342080 -468778 -439449 -430240 -544106
644871358230731264 -468727 -439425 -430167 -544086
644871358238120448 -468822 -439461 -430297 -544139
644871358245509632 -468804 -439481 -430350 -544082
644871358252898816 -468735 -439540 -430495 -544130
644871358260288000 -468819 -439650 -430468 -544122
644871358267677184 -468852 -439667 -430499 -544171
644871358275066368 -468918 -439724 -430674 -544137
644871358282455552 -468899 -439756 -430662 -544109
644871358289813796 -468969 -439813 -430737 -544243
644871358297204800 -469062 -439996 -430868 -544199
644871358304595804 -469031 -440010 -430918 -544190
644871358311986808 -469044 -440023 -430953 -544149
644871358319377812 -469141 -440080 -430942 -544187
644871358326768816 -469173 -440209 -431128 -544178
644871358334159820 -469175 -440219 -431095 -544146
644871358341550824 -469030 -440204 -431131 -544148
644871358348941828 -469181 -440245 -431187 -544143
644871358356332832 -469109 -440403 -431202 -544169
644871358363723836 -469257 -440352 -431240 -544228
644871358371114840 -469194 -440423 -431218 -544134
644871358378505844 -469201 -440388 -431420 -544151
644871358385896848 -469292 -440461 -431480 -544033
644871358393287852 -469277 -440632 -431501 -544191
644871358400678856 -469376 -440682 -431496 -544237
644871358408069860 -469287 -440634 -431542 -544136
644871358415460864 -469352 -440651 -431574 -544144
644871358422882816 -469266 -440830 -431762 -544196
644871358430272000 -469260 -440776 -431816 -544131
644871358437661184 -469268 -440739 -431780 -544157
644871358445050368 -469345 -440887 -431765 -544147
644871358452439552 -469345 -440886 -431800 -544287
644871358459828736 -469393 -440839 -431875 -544220
644871358467217920 -469397 -440961 -431823 -544172
644871358474607104 -469489 -440939 -431913 -544195
644871358481996288 -469492 -441036 -431910 -544173
644871358489385472 -469479 -441030 -432034 -544130
644871358496774656 -469441 -441000 -432020 -544147
644871358504163840 -469430 -441132 -432078 -544179
644871358511553024 -469441 -441001 -432063 -544233
644871358518942208 -469421 -441116 -432187 -544170
644871358526331392 -469437 -441096 -432131 -544155
644871358533720576 -469466 -441164 -432152 -544149
644871358541109760 -469548 -441151 -432189 -544129
644871358548498944 -469578 -441121 -432077 -544171
644871358555888128 -469398 -441249 -432238 -544061
644871358563277312 -469521 -441212 -432261 -544118
644871358570666496 -469513 -441229 -432218 -544111
644871358578055680 -469502 -441209 -432234 -544207
644871358585444864 -469530 -441172 -432261 -544152
644871358592834048 -469511 -441154 -432243 -544156
644871358600223232 -469531 -441244 -432239 -544239
644871358607612416 -469592 -441207 -432228 -544183
644871358615001600 -469618 -441214 -432272 -544259
644871358622390784 -469540 -441205 -432231 -544230
644871358629779968 -469558 -441155 -432256 -544144
644871358637169152 -469550 -441229 -432213 -544135
644871358644558336 -469536 -441167 -432203 -544149
644871358651947520 -469611 -441143 -432237 -544145
644871358659336704 -469680 -441223 -432220 -544175
644871358666725888 -469686 -441231 -432256 -544182
644871358674115072 -469745 -441301 -432338 -544170
644871358681504256 -469660 -441183 -432285 -544249
644871358688893440 -469624 -441198 -432262 -544336
644871358696282624 -469663 -441341 -432355 -544322
644871358703671808 -469640 -441335 -432289 -544230
644871358711060992 -469675 -441224 -432295 -544221
644871358718450176 -469700 -441267 -432207 -544154
644871358725839360 -469635 -441298 -432220 -544085
644871358733228544 -469607 -441256 -432253 -544166
644871358740617728 -469691 -441346 -432205 -544290
644871358748006912 -469708 -441234 -432253 -544112
644871358755396096 -469669 -441363 -432286 -544218
644871358762785280 -469713 -441332 -432335 -544137
644871358770174464 -469781 -441331 -432349 -544175
644871358777563648 -469769 -441423 -432388 -544148
644871358784952832 -469773 -441505 -432558 -544247
644871358792342016 -469750 -441530 -432572 -544250
644871358799731200 -469836 -441601 -432566 -544208
644871358807120384 -469848 -441652 -432699 -544313
644871358814509568 -470002 -441740 -432739 -544296
644871358821898752 -470011 -441877 -432991 -544355
644871358829287936 -470050 -441882 -432904 -544242
644871358836677120 -470147 -441923 -432994 -544272
644871358844066304 -470197 -441980 -433089 -544315
644871358851455488 -470325 -442394 -433084 -544221
644871358858844672 -470322 -442275 -433137 -544160
644871358866233856 -470394 -442258 -433211 -544217
644871358873623040 -470487 -442357 -433256 -544233
644871358881012224 -470462 -442373 -433395 -544187
644871358888401408 -470547 -442468 -433444 -544303
644871358895790592 -470606 -442588 -433452 -544285
644871358903179776 -470666 -442615 -433606 -544279
644871358910568960 -470672 -442616 -433626 -544325
644871358917958144 -470596 -442589 -433672 -544306
644871358925347328 -470669 -442690 -433726 -544240
644871358932736512 -470750 -442714 -433812 -544272
644871358940125696 -470912 -442833 -433857 -544213
644871358947514880 -470904 -442870 -433851 -544242
644871358954904064 -470960 -442993 -433916 -544101
644871358962293248 -470969 -443025 -433951 -544103
644871358969682432 -470973 -443009 -433960 -544181
644871358977071616 -471050 -443084 -434105 -544226
644871358984460800 -471032 -443044 -434146 -544239
644871358991849984 -471078 -443111 -434179 -544255
644871358999239168 -471146 -443164 -434217 -544216
644871359006628352 -471256 -443127 -434237 -544183
644871359014017536 -471259 -443252 -434335 -544183
644871359021406720 -471198 -443178 -434251 -544311
644871359028795904 -471164 -443244 -434321 -544214
644871359036185088 -471204 -443124 -434378 -544238
644871359043574272 -471263 -443233 -434442 -544277
644871359050963456 -471243 -443309 -434472 -544316
644871359058352640 -471240 -443307 -434434 -544223
644871359065741824 -471278 -443367 -434477 -544235
644871359073131008 -471294 -443335 -434416 -544237
644871359080520192 -471332 -443470 -434508 -544235
644871359087878436 -471244 -443410 -434610 -544230
644871359095269440 -471376 -443394 -434537 -544169
644871359102660444 -471321 -443416 -434501 -544200
644871359110051448 -471348 -443476 -434538 -544190
644871359117442452 -471365 -443465 -434554 -544188
644871359124833456 -471500 -443614 -434667 -544301
644871359132224460 -471427 -443604 -434648 -544254
644871359139615464 -471467 -443595 -434761 -544206
644871359147006468 -471417 -443646 -434766 -544274
644871359154397472 -471361 -443588 -434760 -544215
644871359161788476 -471398 -443572 -434742 -544156
644871359169179480 -471492 -443658 -434819 -544208
644871359176570484 -471434 -443618 -434767 -544249
644871359183961488 -471477 -443614 -434845 -544258
644871359191352492 -471489 -443681 -434823 -544285
644871359198743496 -471525 -443663 -434862 -544202
644871359206134500 -471543 -443713 -434817 -544198
644871359213525504 -471582 -443759 -434867 -544202
644871359220947456 -471582 -443635 -434711 -544147
644871359228336640 -471519 -443673 -434826 -544224
644871359235725824 -471503 -443662 -434778 -544149
644871359243115008 -471525 -443852 -434902 -544249
644871359250504192 -471571 -443701 -434872 -544168
644871359257893376 -471555 -443716 -434877 -544171
644871359265282560 -471521 -443793 -434870 -544119
644871359272671744 -471510 -443809 -434980 -544200
644871359280060928 -471554 -443772 -434973 -544144
644871359287450112 -471492 -443756 -434991 -544205
644871359294839296 -471511 -443733 -434855 -544223
644871359302228480 -471481 -443815 -434824 -544245
644871359309617664 -471556 -443887 -434974 -544292
644871359317006848 -471529 -443772 -434982 -544189
644871359324396032 -471551 -443809 -434900 -544154
644871359331785216 -471622 -443759 -434884 -544208
644871359339174400 -471666 -443735 -434970 -544207
644871359346563584 -471703 -443818 -434989 -544186
644871359353983725 -471543 -443750 -435029 -544122
644871359361371088 -471648 -443773 -434978 -544253
644871359368758451 -471692 -443791 -434957 -544180
644871359376145814 -471566 -443795 -434921 -544164
644871359383533177 -471539 -443775 -434941 -544202
644871359390920540 -471532 -443805 -434937 -544246
644871359398307903 -471529 -443768 -434995 -544226
644871359405695266 -471501 -443774 -435014 -544264
644871359413082629 -471594 -443796 -434945 -544298
644871359420469992 -471545 -443809 -435025 -544292
644871359427857355 -471581 -443823 -435054 -544186
644871359435244718 -471580 -443891 -434978 -544194
644871359442632081 -471554 -443876 -435001 -544304
644871359450019444 -471499 -443845 -434985 -544199
644871359457406807 -471550 -443744 -434968 -544276
644871359464794170 -471565 -443778 -434985 -544212
644871359472181533 -471525 -443897 -434987 -544241
644871359479568896 -471598 -443922 -434995 -544258
644871359486956269 -471606 -444021 -435051 -544361
644871359494343632 -471622 -444023 -434979 -544294
644871359501730995 -471651 -443893 -435003 -544284
644871359509118358 -471655 -443925 -435080 -544240
644871359516505721 -471622 -443902 -435066 -544253
644871359523893084 -471559 -443876 -435001 -544226
644871359531280447 -471604 -443959 -435107 -544223
644871359538667810 -471679 -443999 -435141 -544358
644871359546055173 -471709 -444051 -435184 -544406
644871359553442536 -471648 -444088 -435207 -544368
644871359560829899 -471790 -444115 -435251 -544442
644871359568217262 -471816 -444221 -435281 -544301
644871359575604625 -471858 -444200 -435348 -544264
644871359582991988 -471835 -444284 -435462 -544290
644871359590379351 -471843 -444227 -435383 -544288
644871359597766714 -471868 -444347 -435493 -544287
644871359605154077 -471959 -444454 -435563 -544255
644871359612541440 -472076 -444469 -435651 -544169
644871359619835976 -472063 -444749 -435739 -544174
644871359627228800 -472159 -444607 -435793 -544253
644871359634621624 -472134 -444735 -435993 -544297
644871359642014448 -472201 -444777 -436020 -544376
644871359649407272 -472313 -444856 -436082 -544292
644871359656800096 -472316 -444829 -436084 -544263
644871359664192920 -472412 -444960 -436132 -544216
644871359671585744 -472449 -445058 -436199 -544200
644871359678978568 -472437 -445139 -436257 -544187
644871359686371392 -472444 -445215 -436351 -544276
644871359693764216 -472422 -445233 -436438 -544196
644871359701157040 -472460 -445223 -436449 -544177
644871359708549864 -472434 -445237 -436507 -544149
644871359715942688 -472543 -445295 -436501 -544296
644871359723335512 -472558 -445366 -436627 -544150
644871359730728336 -472615 -445380 -436632 -544208
644871359738121160 -472623 -445414 -436673 -544280
644871359745513984 -472691 -445548 -436729 -544257
644871359752968704 -472644 -445514 -436874 -544189
644871359760357888 -472634 -445629 -436869 -544287
644871359767747072 -472757 -445631 -436798 -544185
644871359775136256 -472713 -445690 -436939 -544262
644871359782525440 -472760 -445748 -436978 -544223
644871359789914624 -472811 -445715 -436983 -544268
644871359797303808 -472950 -445854 -437138 -544350
644871359804692992 -472864 -445972 -437203 -544310
644871359812082176 -472969 -445977 -437142 -544230
644871359819471360 -472992 -446002 -437308 -544264
644871359826860544 -473094 -446094 -437309 -544350
644871359834249728 -473056 -446227 -437388 -544391
644871359841638912 -473120 -446201 -437388 -544267
644871359849028096 -473126 -446301 -437477 -544332
644871359856417280 -473121 -446332 -437528 -544285
644871359863806464 -473226 -446549 -437676 -544366
644871359871195648 -473272 -446424 -437724 -544339
644871359878584832 -473304 -446576 -437718 -544209
644871359885974016 -473374 -446668 -437865 -544353
644871359893363200 -473343 -446679 -437920 -544362
644871359900752384 -473350 -446784 -437977 -544347
644871359908141568 -473392 -446839 -437999 -544262
644871359915530752 -473462 -446900 -437980 -544317
644871359922919936 -473466 -446997 -438112 -544334
644871359930309120 -473507 -447104 -438162 -544279
644871359937698304 -473506 -447043 -438222 -544217
644871359945087488 -473485 -447108 -438276 -544180
644871359952476672 -473400 -447009 -438239 -544350
644871359959865856 -473445 -447088 -438251 -544243
644871359967255040 -473505 -447190 -438355 -544349
644871359974644224 -473551 -447317 -438408 -544258
644871359982033408 -473604 -447294 -438443 -544273
644871359989422592 -473614 -447339 -438524 -544206
644871359996811776 -473618 -447457 -438570 -544254
644871360004200960 -473678 -447428 -438549 -544180
644871360011590144 -473654 -447459 -438622 -544191
644871360018948388 -473729 -447513 -438640 -544037
644871360026339392 -473729 -447663 -438716 -544105
644871360033730396 -473722 -447563 -438680 -544256
644871360041121400 -473684 -447649 -438751 -544235
644871360048512404 -473815 -447567 -438822 -544303
644871360055903408 -473837 -447709 -438860 -544284
644871360063294412 -473880 -447822 -438890 -544275
644871360070685416 -473913 -447782 -439007 -544232
644871360078076420 -473946 -447783 -439091 -544299
644871360085467424 -473949 -447804 -439116 -544291
644871360092858428 -473864 -447811 -439101 -544222
644871360100249432 -473974 -447819 -439103 -544204
644871360107640436 -473983 -447851 -439102 -544286
644871360115031440 -473892 -447898 -439182 -544365
644871360122422444 -474004 -447923 -439154 -544306
644871360129813448 -473941 -447958 -439112 -544274
644871360137204452 -473915 -447971 -439168 -544276
644871360144595456 -473990 -448054 -439206 -544240
644871360152048365 -473972 -448042 -439211 -544223
644871360159435728 -474045 -447882 -439209 -544224
644871360166823091 -474006 -447989 -439230 -544253
644871360174210454 -473971 -448025 -439246 -544276
644871360181597817 -474039 -448076 -439309 -544231
644871360188985180 -474021 -448035 -439262 -544233
644871360196372543 -474112 -447938 -439286 -544269
644871360203759906 -473988 -447934 -439237 -544222
644871360211147269 -474095 -448024 -439255 -544219
644871360218534632 -474040 -447993 -439260 -544163
644871360225921995 -474046 -447981 -439217 -544260
644871360233309358 -474026 -448009 -439253 -544315
644871360240696721 -474043 -447991 -439233 -544237
644871360248084084 -473976 -447962 -439270 -544228
644871360255471447 -474029 -448049 -439309 -544290
644871360262858810 -473953 -448021 -439316 -544348
644871360270246173 -473974 -447985 -439281 -544247
644871360277633536 -473958 -448010 -439220 -544333
644871360285020909 -473963 -447891 -439339 -544457
644871360292408272 -473868 -447964 -439290 -544351
644871360299795635 -473847 -447845 -439234 -544283
644871360307182998 -473867 -447888 -439180 -544323
644871360314570361 -473902 -447782 -439218 -544319
644871360321957724 -473860 -447775 -439172 -544303
644871360329345087 -473838 -447742 -439136 -544320
644871360336732450 -473834 -447778 -439091 -544340
644871360344119813 -473797 -447700 -439147 -544275
644871360351507176 -473802 -447702 -439144 -544222
644871360358894539 -473719 -447629 -439098 -544214
644871360366281902 -473888 -447771 -439137 -544369
644871360373669265 -473842 -447783 -439157 -544306
644871360381056628 -473841 -447827 -439226 -544303
644871360388443991 -473842 -447831 -439210 -544300
644871360395831354 -473890 -447839 -439194 -544332
644871360403218717 -473914 -447897 -439308 -544298
644871360410606080 -473967 -447897 -439360 -544260
644871360417900616 -473993 -448073 -439420 -544399
644871360425293440 -473993 -448042 -439400 -544357
644871360432686264 -474003 -448028 -439526 -544270
644871360440079088 -474059 -448014 -439511 -544262
644871360447471912 -473970 -448112 -439551 -544280
644871360454864736 -473968 -448134 -439504 -544339
644871360462257560 -473995 -448117 -439552 -544222
644871360469650384 -474023 -448176 -439584 -544246
644871360477043208 -474087 -448145 -439587 -544264
644871360484436032 -474051 -448220 -439650 -544253
644871360491828856 -474087 -448190 -439599 -544211
644871360499221680 -473997 -448204 -439599 -544237
644871360506614504 -474009 -448189 -439650 -544250
644871360514007328 -474056 -448316 -439623 -544313
644871360521400152 -474044 -448278 -439595 -544284
644871360528792976 -474152 -448441 -439714 -544266
644871360536185800 -474148 -448406 -439666 -544249
644871360543578624 -474135 -448428 -439653 -544324
644871360551033344 -474129 -448439 -439747 -544238
644871360558422528 -474098 -448368 -439717 -544305
644871360565811712 -474090 -448352 -439713 -544260
644871360573200896 -474069 -448400 -439766 -544277
644871360580590080 -474044 -448497 -439665 -544296
644871360587979264 -474160 -448544 -439721 -544297
644871360595368448 -474112 -448543 -439728 -544230
644871360602757632 -474131 -448530 -439802 -544301
644871360610146816 -474167 -448559 -439845 -544222
644871360617536000 -474096 -448536 -439764 -544248
644871360624925184 -474150 -448606 -439861 -544258
644871360632314368 -474200 -448631 -439895 -544230
644871360639703552 -474228 -448729 -440006 -544275
644871360647092736 -474324 -448707 -440017 -544225
644871360654481920 -474309 -448777 -439984 -544116
644871360661871104 -474380 -448818 -439979 -544292
644871360669260288 -474410 -448835 -440022 -544319
644871360676649472 -474395 -448887 -440174 -544272
644871360684038656 -474432 -448869 -440167 -544336
644871360691427840 -474442 -449034 -440244 -544252
644871360698817024 -474509 -449023 -440267 -544320
644871360706206208 -474506 -449131 -440297 -544207
644871360713595392 -474538 -449099 -440353 -544228
644871360720984576 -474536 -449113 -440340 -544303
644871360728373760 -474586 -449263 -440449 -544297
644871360735762944 -474505 -449244 -440442 -544237
644871360743152128 -474528 -449237 -440447 -544280
644871360750541312 -474541 -449338 -440506 -544285
644871360757930496 -474630 -449304 -440481 -544179
644871360765319680 -474690 -449320 -440506 -544253
644871360772708864 -474596 -449276 -440522 -544264
644871360780098048 -474598 -449339 -440478 -544341
644871360787487232 -474652 -449430 -440567 -544343
644871360794876416 -474653 -449364 -440512 -544351
644871360802265600 -474650 -449344 -440520 -544376
644871360809654784 -474572 -449331 -440559 -544338
644871360817013028 -474616 -449429 -440522 -544286
644871360824404032 -474597 -449450 -440520 -544276
644871360831795036 -474585 -449443 -440462 -544275
644871360839186040 -474619 -449505 -440471 -544286
644871360846577044 -474704 -449480 -440536 -544271
644871360853968048 -474667 -449407 -440517 -544283
644871360861359052 -474698 -449439 -440541 -544324
644871360868750056 -474638 -449433 -440471 -544310
644871360876141060 -474640 -449393 -440463 -544333
644871360883532064 -474702 -449400 -440497 -544357
644871360890923068 -474644 -449401 -440433 -544380
644871360898314072 -474631 -449470 -440446 -544378
644871360905705076 -474562 -449506 -440467 -544247
644871360913096080 -474540 -449345 -440458 -544336
644871360920487084 -474644 -449398 -440395 -544371
644871360927878088 -474707 -449379 -440515 -544337
644871360935269092 -474721 -449259 -440401 -544373
644871360942660096 -474698 -449307 -440471 -544348
644871360950113005 -474583 -449200 -440440 -544456
644871360957500368 -474546 -449234 -440384 -544358
644871360964887731 -474531 -449268 -440356 -544297
644871360972275094 -474553 -449236 -440308 -544307
644871360979662457 -474559 -449289 -440303 -544305
644871360987049820 -474540 -449335 -440301 -544322
644871360994437183 -474631 -449231 -440342 -544331
644871361001824546 -474568 -449215 -440280 -544333
644871361009211909 -474566 -449203 -440324 -544342
644871361016599272 -474644 -449276 -440275 -544399
644871361023986635 -474608 -449179 -440268 -544377
644871361031373998 -474550 -449200 -440302 -544326
644871361038761361 -474525 -449218 -440204 -544326
644871361046148724 -474461 -449083 -440185 -544285
644871361053536087 -474529 -449161 -440185 -544225
644871361060923450 -474567 -449151 -440213 -544266
644871361068310813 -474539 -449183 -440175 -544318
644871361075698176 -474524 -449182 -440209 -544387
644871361083085549 -474570 -449133 -439974 -544407
644871361090472912 -474501 -449099 -440141 -544402
644871361097860275 -474467 -449092 -440090 -544313
644871361105247638 -474498 -449100 -440072 -544311
644871361112635001 -474444 -449080 -440110 -544250
644871361120022364 -474519 -449118 -440128 -544274
644871361127409727 -474483 -449117 -439976 -544336
644871361134797090 -474420 -449071 -439999 -544276
644871361142184453 -474404 -449043 -440031 -544269
644871361149571816 -474425 -449050 -440022 -544277
644871361156959179 -474352 -449050 -440103 -544340
644871361164346542 -474308 -449089 -440032 -544272
644871361171733905 -474409 -449082 -440058 -544294
644871361179121268 -474401 -449114 -440182 -544271
644871361186508631 -474371 -449107 -440062 -544291
644871361193895994 -474423 -449050 -440075 -544263
644871361201283357 -474452 -449127 -440093 -544238
644871361208670720 -474558 -449248 -440229 -544287
644871361215965256 -474482 -449245 -440224 -544273
644871361223358080 -474563 -449357 -440241 -544373
644871361230750904 -474671 -449425 -440332 -544301
644871361238143728 -474645 -449380 -440381 -544310
644871361245536552 -474720 -449461 -440422 -544350
644871361252929376 -474674 -449456 -440442 -544337
644871361260322200 -474782 -449536 -440488 -544368
644871361267715024 -474849 -449658 -440616 -544328
644871361275107848 -474793 -449706 -440679 -544298
644871361282500672 -474735 -449578 -440605 -544292
644871361289893496 -474815 -449680 -440782 -544252
644871361297286320 -474854 -449738 -440711 -544287
644871361304679144 -474838 -449711 -440674 -544309
644871361312071968 -474909 -449822 -440727 -544297
644871361319464792 -474863 -449783 -440706 -544216
644871361326857616 -474879 -449728 -440755 -544234
644871361334250440 -474893 -449763 -440647 -544209
644871361341643264 -474907 -449763 -440710 -544271
644871361349128941 -474928 -449671 -440669 -544217
644871361356516304 -474874 -449754 -440728 -544274
644871361363903667 -474890 -449801 -440714 -544330
644871361371291030 -474839 -449739 -440719 -544328
644871361378678393 -474874 -449833 -440843 -544314
644871361386065756 -474871 -449863 -440842 -544407
644871361393453119 -474961 -449834 -440842 -544307
644871361400840482 -474880 -449827 -440793 -544217
644871361408227845 -474947 -449796 -440836 -544307
644871361415615208 -474925 -449772 -440840 -544226
644871361423002571 -474884 -449896 -440804 -544228
644871361430389934 -474846 -449839 -440804 -544286
644871361437777297 -474897 -449737 -440744 -544296
644871361445164660 -474852 -449742 -440808 -544290
644871361452552023 -474845 -449798 -440764 -544271
644871361459939386 -474886 -449929 -440854 -544250
644871361467326749 -474922 -449787 -440859 -544254
644871361474714112 -474876 -449788 -440908 -544256
644871361482039588 -474941 -449742 -440933 -544407
644871361489430592 -474884 -449749 -440820 -544325
644871361496821596 -474933 -449876 -440863 -544303
644871361504212600 -474931 -449850 -440884 -544292
644871361511603604 -474966 -449858 -440855 -544207
644871361518994608 -474924 -449835 -440815 -544305
644871361526385612 -474864 -449806 -440891 -544293
644871361533776616 -474947 -449900 -440864 -544341
644871361541167620 -474891 -449934 -440844 -544298
644871361548558624 -474837 -449852 -440704 -544262
644871361555949628 -474835 -449868 -440770 -544242
644871361563340632 -474695 -449816 -440805 -544203
644871361570731636 -474655 -449768 -440761 -544258
644871361578122640 -474655 -449733 -440627 -544318
644871361585513644 -474716 -449727 -440660 -544308
644871361592904648 -474706 -449699 -440640 -544289
644871361600295652 -474566 -449508 -440561 -544259
644871361607686656 -474602 -449365 -440477 -544233
644871361615077668 -474611 -449238 -440507 -544305
644871361622468672 -474480 -449214 -440372 -544345
644871361629859676 -474319 -449196 -440149 -544285
644871361637250680 -474255 -449025 -440011 -544353
644871361644641684 -474248 -448917 -439919 -544288
644871361652032688 -474214 -448867 -439905 -544269
644871361659423692 -474153 -448739 -439796 -544255
644871361666814696 -474073 -448679 -439746 -544203
644871361674205700 -474052 -448457 -439614 -544214
644871361681596704 -473958 -448413 -439596 -544279
644871361688987708 -473908 -448243 -439521 -544341
644871361696378712 -473857 -448194 -439334 -544309
644871361703769716 -473705 -448073 -439333 -544236
644871361711160720 -473683 -447979 -439175 -544310
644871361718551724 -473632 -447794 -439095 -544267
644871361725942728 -473591 -447699 -439013 -544214
644871361733333732 -473481 -447622 -438881 -544149
644871361740724736 -473436 -447634 -438843 -544220
644871361748177645 -473426 -447463 -438624 -544224
644871361755565008 -473354 -447349 -438641 -544240
644871361762952371 -473343 -447332 -438659 -544268
644871361770339734 -473284 -447202 -438476 -544282
644871361777727097 -473189 -447160 -438481 -544308
644871361785114460 -473150 -447025 -438338 -544354
644871361792501823 -473141 -446946 -438262 -544333
644871361799889186 -473046 -446886 -438169 -544359
644871361807276549 -473010 -446862 -438039 -544212
644871361814663912 -472914 -446736 -437988 -544248
644871361822051275 -472902 -446554 -437860 -544143
644871361829438638 -472844 -446465 -437868 -544229
644871361836826001 -472730 -446323 -437787 -544190
644871361844213364 -472796 -446282 -437633 -544228
644871361851600727 -472589 -446121 -437539 -544206
644871361858988090 -472592 -446051 -437426 -544173
644871361866375453 -472519 -445943 -437286 -544157
644871361873762816 -472421 -445882 -437217 -544222
644871361881088292 -472278 -445766 -437224 -544135
644871361888479296 -472285 -445739 -437096 -544202
644871361895870300 -472248 -445618 -436981 -544169
644871361903261304 -472091 -445502 -436939 -544217
644871361910652308 -472114 -445293 -436797 -544188
644871361918043312 -472056 -445194 -436765 -544179
644871361925434316 -471914 -445025 -436589 -544207
644871361932825320 -471837 -444960 -436515 -544264
644871361940216324 -471819 -444874 -436474 -544314
644871361947607328 -471759 -444806 -436346 -544239
644871361954998332 -471678 -444669 -436216 -544233
644871361962389336 -471573 -444517 -436144 -544266
644871361969780340 -471532 -444418 -436044 -544164
644871361977171344 -471526 -444449 -435870 -544154
644871361984562348 -471530 -444286 -435789 -544222
644871361991953352 -471462 -444298 -435734 -544294
644871361999344356 -471436 -444232 -435694 -544293
644871362006735360 -471406 -444058 -435596 -544182
644871362014126372 -471364 -443893 -435469 -544105
644871362021517376 -471366 -443898 -435500 -544173
644871362028908380 -471300 -443914 -435492 -544200
644871362036299384 -471242 -443859 -435370 -544252
644871362043690388 -471273 -443875 -435279 -544276
644871362051081392 -471218 -443768 -435205 -544276
644871362058472396 -471184 -443805 -435214 -544228
644871362065863400 -471102 -443736 -435183 -544181
644871362073254404 -471110 -443698 -435192 -544162
644871362080645408 -471163 -443680 -435119 -544188
644871362088036412 -471142 -443668 -435150 -544209
644871362095427416 -471099 -443624 -435077 -544172
644871362102818420 -471110 -443769 -434997 -544162
644871362110209424 -471026 -443659 -435079 -544273
644871362117600428 -471119 -443612 -435064 -544190
644871362124991432 -471144 -443690 -434923 -544253
644871362132382436 -470976 -443553 -434921 -544217
644871362139773440 -471064 -443620 -434829 -544171
644871362147195392 -471106 -443703 -434730 -544220
644871362154584576 -471102 -443597 -434734 -544205
644871362161973760 -471033 -443670 -434780 -544220
644871362169362944 -470984 -443665 -434692 -544215
644871362176752128 -471062 -443576 -434724 -544378
644871362184141312 -470949 -443620 -434696 -544287
644871362191530496 -470975 -443509 -434628 -544167
644871362198919680 -470902 -443485 -434596 -544145
644871362206308864 -470888 -443513 -434702 -544163
644871362213698048 -470842 -443395 -434603 -544274
644871362221087232 -470816 -443441 -434557 -544192
644871362228476416 -470811 -443343 -434448 -544232
644871362235865600 -470799 -443320 -434435 -544182
644871362243254784 -470789 -443257 -434226 -544222
644871362250643968 -470707 -443144 -434236 -544243
644871362258033152 -470697 -443145 -434194 -544200
644871362265422336 -470695 -443250 -434215 -544221
644871362272811520 -470593 -443232 -434169 -544138
644871362280200704 -470531 -443158 -434126 -544118
644871362287589888 -470484 -443143 -434109 -544111
644871362294979072 -470592 -443108 -434039 -544141
644871362302368256 -470557 -443026 -433980 -544130
644871362309757440 -470447 -443125 -433994 -544234
644871362317146624 -470421 -442997 -433906 -544225
644871362324535808 -470394 -442942 -433863 -544297
644871362331924992 -470330 -442853 -433837 -544238
644871362339314176 -470302 -442850 -433762 -544307
644871362346703360 -470280 -442897 -433819 -544230
644871362354092544 -470290 -442885 -433671 -544232
644871362361481728 -470249 -442732 -433588 -544215
644871362368870912 -470245 -442823 -433574 -544237
644871362376260096 -470208 -442746 -433656 -544233
644871362383649280 -470194 -442717 -433540 -544208
644871362391038464 -470225 -442721 -433582 -544236
644871362398427648 -470214 -442824 -433481 -544282
644871362405816832 -470190 -442635 -433402 -544216
644871362413175076 -470151 -442801 -433380 -544156
644871362420566080 -470163 -442788 -433409 -544177
644871362427957084 -470117 -442697 -433324 -544183
644871362435348088 -470134 -442593 -433347 -544200
644871362442739092 -470096 -442509 -433216 -544262
644871362450130096 -469914 -442553 -433206 -544224
644871362457521100 -469901 -442474 -433224 -544239
644871362464912104 -469957 -442458 -433127 -544204
644871362472303108 -469936 -442446 -433087 -544184
644871362479694112 -469899 -442420 -433148 -544226
644871362487085116 -469931 -442399 -433035 -544199
644871362494476120 -469836 -442346 -432938 -544241
644871362501867124 -469855 -442325 -432910 -544246
644871362509258128 -469868 -442352 -432983 -544245
644871362516649132 -469839 -442321 -432838 -544206
644871362524040136 -469768 -442282 -432854 -544167
644871362531431140 -469738 -442178 -432865 -544196
644871362538822144 -469775 -442156 -432836 -544271
644871362546275053 -469649 -442068 -432750 -544286
644871362553662416 -469738 -442004 -432669 -544297
644871362561049779 -469719 -442041 -432581 -544279
644871362568437142 -469624 -442062 -432643 -544255
644871362575824505 -469572 -442030 -432538 -544239
644871362583211868 -469532 -441991 -432554 -544279
644871362590599231 -469580 -441866 -432373 -544189
644871362597986594 -469463 -441857 -432476 -544208
644871362605373957 -469483 -441810 -432397 -544252
644871362612761320 -469518 -441775 -432370 -544252
644871362620148683 -469444 -441659 -432251 -544184
644871362627536046 -469452 -441639 -432234 -544168
644871362634923409 -469392 -441634 -432186 -544259
644871362642310772 -469270 -441495 -432134 -544217
644871362649698135 -469352 -441469 -431948 -544212
644871362657085498 -469245 -441476 -431995 -544221
644871362664472861 -469216 -441470 -431952 -544153
644871362671860224 -469149 -441355 -431902 -544251
644871362679185700 -469199 -441360 -431859 -544219
644871362686576704 -469111 -441253 -431799 -544251
644871362693967708 -469114 -441159 -431728 -544251
644871362701358712 -469073 -441131 -431779 -544246
644871362708749716 -469006 -441081 -431667 -544289
644871362716140720 -468986 -440978 -431724 -544219
644871362723531724 -468902 -441004 -431613 -544238
644871362730922728 -468871 -441012 -431636 -544345
644871362738313732 -468883 -440920 -431524 -544292
644871362745704736 -468852 -440907 -431404 -544391
644871362753095740 -468814 -440818 -431350 -544236
644871362760486744 -468714 -440725 -431293 -544164
644871362767877748 -468773 -440701 -431218 -544215
644871362775268752 -468753 -440597 -431122 -544225
644871362782659756 -468668 -440561 -431094 -544263
644871362790050760 -468667 -440525 -431062 -544310
644871362797441764 -468632 -440550 -431037 -544344
644871362804832768 -468568 -440482 -431001 -544372
644871362812254720 -468482 -440447 -430890 -544360
644871362819643904 -468489 -440459 -430792 -544318
644871362827033088 -468566 -440400 -430819 -544283
644871362834422272 -468468 -440327 -430757 -544289
644871362841811456 -468387 -440345 -430678 -544324
644871362849200640 -468397 -440228 -430641 -544228
644871362856589824 -468388 -440246 -430556 -544219
644871362863979008 -468254 -440207 -430542 -544216
644871362871368192 -468276 -440151 -430405 -544237
644871362878757376 -468204 -440108 -430450 -544225
644871362886146560 -468184 -440135 -430410 -544242
644871362893535744 -468160 -440016 -430422 -544263
644871362900924928 -468061 -439978 -430309 -544246
644871362908314112 -468004 -439840 -430269 -544211
644871362915703296 -468063 -439808 -430157 -544282
644871362923092480 -468050 -439828 -430108 -544289
644871362930481664 -468089 -439745 -430090 -544248
644871362937870848 -468035 -439744 -430046 -544351
644871362945260032 -467963 -439876 -429916 -544219
644871362952649216 -467904 -439760 -429903 -544224
644871362960038400 -467904 -439703 -429982 -544201
644871362967427584 -467965 -439673 -429981 -544207
644871362974816768 -467849 -439631 -430038 -544114
644871362982205952 -467874 -439593 -429940 -544165
644871362989595136 -467921 -439626 -429978 -544246
644871362996984320 -467949 -439602 -429980 -544201
644871363004373504 -467963 -439605 -429870 -544205
644871363011762688 -467972 -439692 -429929 -544149
644871363019151872 -467987 -439799 -429904 -544156
644871363026541056 -467970 -439676 -430001 -544183
644871363033930240 -467903 -439646 -429953 -544178
644871363041319424 -467981 -439703 -429941 -544138
644871363048708608 -468045 -439709 -430063 -544245
644871363056097792 -468109 -439679 -429974 -544207
644871363063486976 -467959 -439582 -429964 -544157
644871363070876160 -468045 -439722 -429970 -544180
644871363078265344 -467979 -439644 -429964 -544200
644871363085654528 -468002 -439548 -429901 -544221
644871363093043712 -467963 -439623 -429974 -544162
644871363100432896 -467915 -439542 -429923 -544233
644871363107822080 -467971 -439481 -429847 -544239
644871363115211264 -467936 -439502 -429832 -544245
644871363122600448 -467897 -439469 -429741 -544168
644871363129989632 -467921 -439421 -429700 -544228
644871363137378816 -467888 -439447 -429699 -544185
644871363144768000 -467912 -439393 -429791 -544194
644871363152157184 -467829 -439319 -429685 -544221
644871363159546368 -467773 -439364 -429671 -544148
644871363166935552 -467769 -439275 -429554 -544243
644871363174324736 -467729 -439244 -429527 -544224
644871363181713920 -467762 -439282 -429518 -544212
644871363189103104 -467711 -439164 -429506 -544189
644871363196492288 -467679 -439136 -429444 -544177
644871363203881472 -467623 -439147 -429415 -544225
644871363211270656 -467627 -439075 -429276 -544173
644871363218659840 -467632 -439043 -429267 -544226
644871363226049024 -467580 -439031 -429263 -544183
644871363233438208 -467600 -438942 -429215 -544260
644871363240827392 -467576 -438974 -429030 -544271
644871363248216576 -467470 -438960 -429101 -544303
644871363255605760 -467473 -438842 -429118 -544207
644871363262994944 -467368 -438799 -428999 -544242
644871363270384128 -467384 -438770 -428962 -544198
644871363277773312 -467426 -438683 -428972 -544223
644871363285162496 -467451 -438683 -428917 -544247
644871363292551680 -467344 -438734 -428905 -544257
644871363299940864 -467392 -438630 -428829 -544281
644871363307330048 -467373 -438632 -428743 -544199
644871363314719232 -467295 -438597 -428724 -544281
644871363322108416 -467302 -438538 -428643 -544300
644871363329497600 -467312 -438512 -428678 -544234
644871363336886784 -467212 -438527 -428623 -544282
644871363344275968 -467242 -438547 -428533 -544336
644871363351665152 -467186 -438400 -428574 -544348
644871363359054336 -467284 -438420 -428463 -544366
644871363366443520 -467155 -438391 -428438 -544245
644871363373832704 -467112 -438330 -428397 -544273
644871363381221888 -467082 -438313 -428357 -544282
644871363388611072 -467121 -438238 -428503 -544257
644871363396000256 -467086 -438245 -428479 -544217
644871363403389440 -467073 -438226 -428349 -544183
644871363410778624 -467048 -438110 -428293 -544226
644871363418167808 -467003 -438113 -428268 -544229
644871363425556992 -466971 -438031 -428178 -544254
644871363432946176 -466837 -438070 -428122 -544185
644871363440335360 -466910 -438008 -428152 -544211
644871363447724544 -466853 -437934 -428032 -544188
644871363455113728 -466848 -437950 -428046 -544171
644871363462502912 -466842 -437865 -427954 -544190
644871363469892096 -466732 -437901 -427923 -544202
644871363477281280 -466816 -438003 -427628 -544230
644871363484670464 -466735 -437784 -427754 -544254
644871363492059648 -466792 -437752 -427738 -544167
644871363499448832 -466717 -437699 -427689 -544147
644871363506838016 -466840 -437769 -427814 -544308
644871363514227200 -466776 -437737 -427700 -544235
644871363521616384 -466651 -437647 -427688 -544178
644871363529005568 -466626 -437609 -427688 -544223
644871363536394752 -466586 -437548 -427699 -544241
644871363543783936 -466622 -437546 -427648 -544218
644871363551173120 -466534 -437551 -427691 -544306
644871363558562304 -466553 -437492 -427584 -544299
644871363565951488 -466451 -437432 -427499 -544255
644871363573340672 -466424 -437339 -427429 -544219
644871363580729856 -466444 -437352 -427356 -544237
644871363588119040 -466425 -437315 -427403 -544167
644871363595508224 -466417 -437359 -427438 -544119
644871363602897408 -466410 -437356 -427362 -544189
644871363610255652 -466216 -437299 -427302 -544134
644871363617646656 -466294 -437199 -427256 -544120
644871363625037660 -466438 -437179 -427287 -544181
644871363632428664 -466346 -437169 -427193 -544133
644871363639819668 -466440 -437200 -427217 -544242
644871363647210672 -466399 -437123 -427114 -544237
644871363654601676 -466360 -437145 -427153 -544239
644871363661992680 -466266 -437094 -427102 -544178
644871363669383684 -466220 -437008 -426997 -544189
644871363676774688 -466186 -436930 -426986 -544156
644871363684165692 -466156 -436898 -426995 -544155
644871363691556696 -466120 -436812 -426918 -544150
644871363698947700 -466113 -436776 -426917 -544097
644871363706338704 -466078 -436732 -426921 -544165
644871363713729708 -466061 -436680 -426774 -544120
644871363721120712 -466008 -436667 -426756 -544223
644871363728511716 -466039 -436572 -426660 -544160
644871363735902720 -466023 -436649 -426554 -544160
644871363743355629 -465987 -436592 -426438 -544256
644871363750742992 -465865 -436557 -426514 -544202
644871363758130355 -465877 -436517 -426444 -544171
644871363765517718 -465865 -436400 -426447 -544141
644871363772905081 -465886 -436386 -426407 -544182
644871363780292444 -465895 -436485 -426492 -544257
644871363787679807 -465881 -436357 -426348 -544107
644871363795067170 -465833 -436410 -426386 -544129
644871363802454533 -465763 -436411 -426389 -544131
644871363809841896 -465827 -436445 -426404 -544224
644871363817229259 -465847 -436454 -426441 -544231
644871363824616622 -465881 -436441 -426380 -544179
644871363832003985 -466016 -436532 -426486 -544276
644871363839391348 -465943 -436519 -426512 -544201
644871363846778711 -465998 -436522 -426553 -544180
644871363854166074 -466048 -436598 -426499 -544145
644871363861553437 -466048 -436582 -426551 -544234
644871363868940800 -465932 -436598 -426603 -544180
644871363876266276 -465884 -436515 -426664 -544077
644871363883657280 -465952 -436555 -426654 -544109
644871363891048284 -465993 -436617 -426662 -544135
644871363898439288 -465937 -436641 -426710 -544085
644871363905830292 -466040 -436586 -426717 -544158
644871363913221296 -465984 -436615 -426662 -544191
644871363920612300 -466056 -436541 -426691 -544120
644871363928003304 -466072 -436599 -426677 -544151
644871363935394308 -466070 -436664 -426742 -544179
644871363942785312 -466119 -436657 -426725 -544228
644871363950176316 -466092 -436643 -426573 -544219
644871363957567320 -466061 -436616 -426670 -544282
644871363964958324 -465973 -436573 -426606 -544190
644871363972349328 -466046 -436568 -426578 -544217
644871363979740332 -466038 -436489 -426627 -544122
644871363987131336 -466056 -436508 -426631 -544217
644871363994522340 -466075 -436604 -426575 -544240
644871364001913344 -466073 -436608 -426586 -544236
644871364009335296 -466136 -436429 -426582 -544130
644871364016724480 -466103 -436464 -426606 -544189
644871364024113664 -466063 -436495 -426537 -544258
644871364031502848 -466103 -436536 -426509 -544287
644871364038892032 -466066 -436458 -426412 -544303
644871364046281216 -466029 -436451 -426451 -544385
644871364053670400 -466021 -436420 -426433 -544372
644871364061059584 -465980 -436418 -426386 -544336
644871364068448768 -465965 -436436 -426336 -544279
644871364075837952 -466000 -436289 -426361 -544286
644871364083227136 -466059 -436330 -426354 -544291
644871364090616320 -465952 -436291 -426330 -544262
644871364098005504 -465935 -436226 -426184 -544285
644871364105394688 -465862 -436211 -426234 -544283
644871364112783872 -465958 -436177 -426199 -544273
644871364120173056 -465875 -436196 -426165 -544365
644871364127562240 -465860 -436145 -426188 -544228
644871364134951424 -465868 -436025 -426229 -544289
644871364142340608 -465860 -436126 -426192 -544410
644871364149729792 -465846 -436132 -426214 -544279
644871364157118976 -465846 -436150 -426156 -544270
644871364164508160 -465891 -436156 -426184 -544282
644871364171897344 -465865 -436093 -426122 -544225
644871364179286528 -465799 -436091 -425998 -544184
644871364186675712 -465880 -436122 -426147 -544316
644871364194064896 -465861 -436009 -426085 -544292
644871364201454080 -465782 -436005 -426019 -544242
644871364208843264 -465743 -435979 -425990 -544235
644871364216232448 -465706 -435920 -425973 -544195
644871364223621632 -465732 -435891 -425945 -544195
644871364231010816 -465680 -435905 -425988 -544209
644871364238400000 -465849 -435937 -425973 -544229
644871364245789184 -465653 -435900 -425868 -544114
644871364253178368 -465645 -435979 -425907 -544158
644871364260567552 -465609 -435915 -425922 -544158
644871364267956736 -465595 -435815 -425898 -544258
644871364275345920 -465576 -435943 -425808 -544085
644871364282735104 -465588 -435839 -425797 -544123
644871364290124288 -465487 -435753 -425748 -544163
644871364297513472 -465577 -435614 -425752 -544188
644871364304902656 -465548 -435625 -425678 -544168
644871364312291840 -465598 -435589 -425674 -544177
644871364319681024 -465554 -435700 -425690 -544249
644871364327070208 -465454 -435660 -425599 -544146
644871364334459392 -465524 -435591 -425545 -544181
644871364341848576 -465414 -435637 -425689 -544185
644871364349237760 -465494 -435653 -425587 -544118
644871364356626944 -465544 -435600 -425576 -544130
644871364364016128 -465547 -435546 -425536 -544181
644871364371405312 -465511 -435544 -425547 -544195
644871364378794496 -465516 -435530 -425578 -544209
644871364386183680 -465570 -435518 -425548 -544135
644871364393572864 -465503 -435612 -425619 -544116
644871364400962048 -465581 -435630 -425679 -544127
644871364408382189 -465626 -435589 -425673 -544124
644871364415769552 -465563 -435626 -425642 -544231
644871364423156915 -465626 -435638 -425602 -544187
644871364430544278 -465632 -435733 -425648 -544113
644871364437931641 -465598 -435789 -425782 -544134
644871364445319004 -465672 -435689 -425782 -544204
644871364452706367 -465726 -435800 -425849 -544195
644871364460093730 -465761 -435791 -425844 -544153
644871364467481093 -465683 -435904 -425879 -544151
644871364474868456 -465712 -435792 -425747 -544169
644871364482255819 -465723 -435776 -425873 -544205
644871364489643182 -465780 -435789 -426003 -544241
644871364497030545 -465744 -435773 -425868 -544207
644871364504417908 -465738 -435786 -425824 -544211
644871364511805271 -465717 -435788 -425821 -544119
644871364519192634 -465754 -435806 -425943 -544139
644871364526579997 -465738 -435814 -425955 -544131
644871364533967360 -465690 -435747 -425841 -544177
644871364541292836 -465663 -435780 -425852 -544160
644871364548683840 -465664 -435754 -425800 -544169
644871364556074844 -465676 -435717 -425807 -544149
644871364563465848 -465661 -435724 -425806 -544202
644871364570856852 -465701 -435656 -425871 -544183
644871364578247856 -465701 -435634 -425924 -544251
644871364585638860 -465751 -435701 -425894 -544225
644871364593029864 -465773 -435636 -425771 -544160
644871364600420868 -465687 -435680 -425765 -544170
644871364607811872 -465591 -435585 -425797 -544158
644871364615202876 -465614 -435632 -425846 -544187
644871364622593880 -465676 -435657 -425879 -544216
644871364629984884 -465627 -435603 -425850 -544156
644871364637375888 -465645 -435705 -425937 -544218
644871364644766892 -465692 -435697 -426011 -544237
644871364652157896 -465646 -435685 -426053 -544317
644871364659548900 -465741 -435827 -426020 -544216
644871364666939904 -465759 -435817 -426032 -544213
644871364674330916 -465767 -435850 -425997 -544182
644871364681721920 -465841 -435844 -426115 -544190
644871364689112924 -465871 -435993 -426164 -544181
644871364696503928 -465911 -435956 -426192 -544121
644871364703894932 -465942 -436001 -426279 -544251
644871364711285936 -466006 -436120 -426389 -544228
644871364718676940 -465987 -436196 -426415 -544186
644871364726067944 -466009 -436306 -426416 -544089
644871364733458948 -466038 -436275 -426522 -544148
644871364740849952 -466119 -436230 -426602 -544266
644871364748240956 -466052 -436305 -426705 -544178
644871364755631960 -466188 -436368 -426721 -544256
644871364763022964 -466226 -436412 -426729 -544174
644871364770413968 -466227 -436425 -426726 -544140
644871364777804972 -466250 -436427 -426726 -544204
644871364785195976 -466316 -436352 -426716 -544194
644871364792586980 -466222 -436474 -426732 -544180
644871364799977984 -466271 -436427 -426734 -544188
644871364807399936 -466299 -436344 -426708 -544131
644871364814789120 -466225 -436407 -426852 -544102
644871364822178304 -466312 -436556 -426892 -544153
644871364829567488 -466229 -436435 -426762 -544141
644871364836956672 -466276 -436455 -426801 -544156
644871364844345856 -466182 -436386 -426713 -544094
644871364851735040 -466168 -436449 -426822 -544138
644871364859124224 -466223 -436391 -426814 -544171
644871364866513408 -466129 -436419 -426691 -544217
644871364873902592 -466192 -436431 -426763 -544276
644871364881291776 -466124 -436382 -426709 -544264
644871364888680960 -466329 -436254 -426606 -544383
644871364896070144 -466178 -436337 -426633 -544394
644871364903459328 -466143 -436321 -426654 -544297
644871364910848512 -466113 -436338 -426609 -544226
644871364918237696 -466172 -436398 -426646 -544290
644871364925626880 -466099 -436440 -426642 -544254
644871364933016064 -466111 -436394 -426677 -544214
644871364940436205 -466153 -436435 -426715 -544127
644871364947823568 -466161 -436343 -426739 -544234
644871364955210931 -466174 -436348 -426713 -544265
644871364962598294 -466101 -436304 -426645 -544268
644871364969985657 -466095 -436250 -426573 -544232
644871364977373020 -466099 -436305 -426600 -544291
644871364984760383 -466113 -436222 -426645 -544260
644871364992147746 -466067 -436172 -426538 -544211
644871364999535109 -466032 -436282 -426585 -544209
644871365006922472 -466059 -436176 -426548 -544181
644871365014309835 -466086 -436164 -426533 -544190
644871365021697198 -466072 -436224 -426471 -544178
644871365029084561 -466104 -436279 -426583 -544207
644871365036471924 -466139 -436247 -426565 -544215
644871365043859287 -466176 -436235 -426522 -544202
644871365051246650 -466104 -436226 -426605 -544200
644871365058634013 -466143 -436228 -426554 -544218
644871365066021376 -466124 -436302 -426594 -544231
644871365073346852 -466025 -436077 -426551 -544121
644871365080737856 -466032 -436167 -426578 -544131
644871365088128860 -465935 -436168 -426559 -544157
644871365095519864 -466017 -436207 -426614 -544259
644871365102910868 -465904 -436122 -426457 -544118
644871365110301872 -465917 -436139 -426536 -544200
644871365117692876 -465974 -436163 -426570 -544220
644871365125083880 -465967 -436146 -426555 -544297
644871365132474884 -465960 -436091 -426493 -544260
644871365139865888 -465983 -436097 -426405 -544212
644871365147256892 -465962 -435951 -426379 -544208
644871365154647896 -465926 -435946 -426355 -544242
644871365162038900 -465883 -435903 -426281 -544217
644871365169429904 -465858 -435936 -426267 -544254
644871365176820908 -465786 -435988 -426290 -544148
644871365184211912 -465828 -435875 -426265 -544107
644871365191602916 -465787 -435940 -426256 -544174
644871365198993920 -465779 -435909 -426204 -544265
644871365206415872 -465730 -436043 -426051 -544341
644871365213805056 -465723 -435920 -426046 -544288
644871365221194240 -465724 -435825 -426055 -544224
644871365228583424 -465707 -435806 -426013 -544226
644871365235972608 -465716 -435685 -426042 -544172
644871365243361792 -465795 -435693 -426138 -544132
644871365250750976 -465692 -435711 -426045 -544085
644871365258140160 -465696 -435619 -425996 -544203
644871365265529344 -465618 -435649 -425957 -544128
644871365272918528 -465592 -435559 -425991 -544246
644871365280307712 -465582 -435502 -425932 -544195
644871365287696896 -465617 -435600 -426002 -544243
644871365295086080 -465527 -435558 -425921 -544174
644871365302475264 -465545 -435582 -425838 -544268
644871365309864448 -465538 -435469 -425803 -544203
644871365317253632 -465584 -435413 -425769 -544270
644871365324642816 -465520 -435477 -425780 -544221
644871365332032000 -465555 -435441 -425685 -544306
644871365339421184 -465519 -435293 -425673 -544341
644871365346810368 -465459 -435375 -425632 -544313
644871365354199552 -465442 -435322 -425665 -544309
644871365361588736 -465425 -435277 -425576 -544327
644871365368977920 -465430 -435279 -425650 -544230
644871365376367104 -465407 -435394 -425576 -544258
644871365383756288 -465377 -435340 -425425 -544239
644871365391145472 -465356 -435268 -425511 -544186
644871365398534656 -465345 -435273 -425482 -544164
644871365405923840 -465345 -435275 -425422 -544221
644871365413313024 -465217 -435234 -425340 -544223
644871365420702208 -465254 -435157 -425329 -544294
644871365428091392 -465284 -435101 -425396 -544224
644871365435480576 -465209 -435133 -425385 -544271
644871365442869760 -465166 -435148 -425312 -544163
644871365450258944 -465190 -435036 -425326 -544300
644871365457648128 -465182 -435066 -425224 -544326
644871365465037312 -465146 -435076 -425352 -544297
644871365472426496 -465080 -434832 -425296 -544217
644871365479815680 -465065 -435077 -425242 -544211
644871365487204864 -465067 -435055 -425219 -544254
644871365494594048 -465093 -435023 -425197 -544165
644871365501983232 -465105 -435002 -425185 -544185
644871365509372416 -465122 -435062 -425198 -544221
644871365516761600 -465171 -435084 -425220 -544230
644871365524150784 -465225 -435051 -425258 -544223
644871365531539968 -465252 -435159 -425307 -544267
644871365538929152 -465258 -435152 -425376 -544359
644871365546318336 -465309 -435170 -425458 -544294
644871365553707520 -465307 -435246 -425464 -544226
644871365561096704 -465421 -435343 -425477 -544242
644871365568485888 -465387 -435418 -425445 -544197
644871365575875072 -465468 -435347 -425541 -544275
644871365583264256 -465498 -435453 -425586 -544145
644871365590653440 -465556 -435463 -425746 -544212
644871365598042624 -465584 -435469 -425755 -544139
644871365605400868 -465513 -435648 -425838 -544135
644871365612791872 -465605 -435637 -425817 -544212
644871365620182876 -465590 -435636 -425818 -544308
644871365627573880 -465681 -435681 -425806 -544252
644871365634964884 -465662 -435743 -425855 -544240
644871365642355888 -465640 -435668 -425808 -544189
644871365649746892 -465635 -435614 -425870 -544254
644871365657137896 -465728 -435646 -425960 -544202
644871365664528900 -465702 -435657 -425948 -544225
644871365671919904 -465709 -435550 -425895 -544230
644871365679310908 -465737 -435600 -425927 -544212
644871365686701912 -465721 -435623 -425901 -544218
644871365694092916 -465712 -435689 -425851 -544248
644871365701483920 -465676 -435661 -425806 -544339
644871365708874924 -465610 -435588 -425897 -544331
644871365716265928 -465600 -435622 -425905 -544299
644871365723656932 -465659 -435564 -425848 -544148
644871365731047936 -465526 -435555 -425914 -544231
644871365738500845 -465647 -435546 -425797 -544326
644871365745888208 -465713 -435483 -425766 -544348
644871365753275571 -465664 -435560 -425815 -544298
644871365760662934 -465651 -435511 -425862 -544228
644871365768050297 -465577 -435542 -425875 -544206
644871365775437660 -465602 -435472 -425896 -544206
644871365782825023 -465557 -435474 -425883 -544214
644871365790212386 -465649 -435478 -425895 -544218
644871365797599749 -465549 -435473 -425886 -544174
644871365804987112 -465660 -435470 -425828 -544256
644871365812374475 -465736 -435575 -425909 -544194
644871365819761838 -465772 -435511 -425892 -544223
644871365827149201 -465627 -435648 -425819 -544224
644871365834536564 -465628 -435612 -425942 -544224
644871365841923927 -465708 -435597 -425871 -544209
644871365849311290 -465697 -435688 -425956 -544265
644871365856698653 -465744 -435643 -425938 -544260
644871365864086016 -465666 -435673 -425960 -544251
644871365871411492 -465640 -435716 -425870 -544335
644871365878802496 -465719 -435738 -425958 -544307
644871365886193500 -465804 -435735 -425927 -544229
644871365893584504 -465794 -435854 -425902 -544165
644871365900975508 -465854 -435890 -426008 -544243
644871365908366512 -465822 -435828 -425937 -544149
644871365915757516 -465924 -435928 -425980 -544134
644871365923148520 -465921 -435893 -426110 -544198
644871365930539524 -465958 -435870 -426020 -544235
644871365937930528 -465908 -435911 -426095 -544180
644871365945321532 -466000 -435889 -426077 -544195
644871365952712536 -465999 -435988 -426057 -544234
644871365960103540 -466002 -435996 -426135 -544174
644871365967494544 -465950 -435949 -426059 -544178
644871365974885548 -466005 -435980 -426093 -544192
644871365982276552 -466062 -436067 -426053 -544279
644871365989667556 -466060 -436061 -426063 -544271
644871365997058560 -466052 -436052 -426114 -544259
644871366004480512 -466058 -435953 -426161 -544088
644871366011869696 -466097 -436131 -426233 -544217
644871366019258880 -466021 -436126 -426253 -544229
644871366026648064 -466035 -436152 -426333 -544218
644871366034037248 -466107 -436285 -426252 -544205
644871366041426432 -466116 -436263 -426279 -544221
644871366048815616 -466103 -436258 -426297 -544233
644871366056204800 -466127 -436237 -426353 -544201
644871366063593984 -466139 -436242 -426328 -544201
644871366070983168 -466107 -436175 -426314 -544220
644871366078372352 -466162 -436178 -426298 -544213
644871366085761536 -466033 -436163 -426276 -544235
644871366093150720 -466001 -436199 -426311 -544190
644871366100539904 -466059 -436272 -426254 -544253
644871366107929088 -466003 -436219 -426293 -544098
644871366115318272 -465977 -436172 -426270 -544192
644871366122707456 -465990 -436198 -426307 -544272
644871366130096640 -466116 -436138 -426295 -544335
644871366137485824 -465993 -436284 -426343 -544198
644871366144875008 -466011 -436265 -426360 -544277
644871366152264192 -465934 -436191 -426296 -544277
644871366159653376 -465945 -436156 -426195 -544211
644871366167042560 -465957 -436243 -426101 -544222
644871366174431744 -466023 -436240 -426146 -544214
644871366181820928 -466032 -436194 -426090 -544296
644871366189210112 -465914 -436206 -426097 -544231
644871366196599296 -465873 -436197 -426142 -544282
644871366203988480 -465873 -436213 -426058 -544266
644871366211377664 -465816 -436135 -426085 -544279
644871366218766848 -465819 -436117 -426094 -544309
644871366226156032 -465883 -436104 -426049 -544230
644871366233545216 -465874 -436139 -426059 -544218
644871366240934400 -465816 -436083 -426033 -544404
644871366248323584 -465778 -436083 -426056 -544339
644871366255712768 -465883 -436069 -426009 -544272
644871366263101952 -465851 -436097 -426049 -544294
644871366270491136 -465850 -436211 -426093 -544145
644871366277880320 -465793 -436091 -426075 -544117
644871366285269504 -465815 -436151 -426043 -544084
644871366292658688 -465860 -436214 -426109 -544185
644871366300047872 -465845 -436123 -426062 -544184
644871366307437056 -465937 -436123 -426040 -544236
644871366314826240 -465813 -436084 -426050 -544242
644871366322215424 -465807 -436171 -426025 -544280
644871366329604608 -465880 -436235 -426101 -544203
644871366336993792 -465854 -436239 -426095 -544205
644871366344382976 -465898 -436176 -426151 -544270
644871366351772160 -465789 -436157 -426077 -544263
644871366359161344 -465773 -436175 -426191 -544219
644871366366550528 -465896 -436271 -426262 -544237
644871366373939712 -465865 -436390 -426334 -544157
644871366381328896 -465975 -436320 -426389 -544200
644871366388718080 -465973 -436501 -426506 -544254
644871366396107264 -465981 -436485 -426637 -544258
644871366403465508 -465975 -436646 -426537 -544294
644871366410856512 -466061 -436761 -426732 -544276
644871366418247516 -466121 -436822 -426951 -544194
644871366425638520 -466231 -436872 -427065 -544202
644871366433029524 -466344 -437073 -427239 -544154
644871366440420528 -466464 -437156 -427325 -544221
644871366447811532 -466550 -437337 -427436 -544303
644871366455202536 -466575 -437406 -427501 -544286
644871366462593540 -466740 -437542 -427595 -544335
644871366469984544 -466736 -437657 -427675 -544188
644871366477375548 -466838 -437634 -427662 -544297
644871366484766552 -466838 -437647 -427742 -544283
644871366492157556 -466860 -437675 -427803 -544234
644871366499548560 -466969 -437712 -427887 -544241
644871366506939564 -467018 -437716 -427873 -544322
644871366514330568 -467072 -437747 -427823 -544286
644871366521721572 -466997 -437726 -427754 -544276
644871366529112576 -467040 -437635 -427678 -544232
644871366536565485 -467123 -437751 -427582 -544214
644871366543952848 -467029 -437664 -427674 -544253
644871366551340211 -467111 -437614 -427655 -544191
644871366558727574 -467018 -437565 -427575 -544217
644871366566114937 -466977 -437553 -427552 -544202
644871366573502300 -467015 -437448 -427585 -544272
644871366580889663 -467033 -437525 -427542 -544199
644871366588277026 -467021 -437479 -427700 -544189
644871366595664389 -467133 -437494 -427573 -544287
644871366603051752 -467059 -437509 -427559 -544290
644871366610439115 -467048 -437482 -427613 -544283
644871366617826478 -467034 -437481 -427640 -544342
644871366625213841 -467014 -437494 -427615 -544280
644871366632601204 -467041 -437480 -427669 -544282
644871366639988567 -467011 -437388 -427691 -544186
644871366647375930 -467056 -437515 -427710 -544233
644871366654763293 -467074 -437551 -427652 -544220
644871366662150656 -467075 -437675 -427709 -544239
644871366669476132 -467119 -437558 -427739 -544282
644871366676867136 -467100 -437567 -427787 -544265
644871366684258140 -467172 -437602 -427860 -544257
644871366691649144 -467229 -437724 -427847 -544309
644871366699040148 -467110 -437646 -427892 -544239
644871366706431152 -467123 -437658 -427876 -544239
644871366713822156 -467135 -437730 -427886 -544229
644871366721213160 -467200 -437800 -427859 -544185
644871366728604164 -467155 -437783 -427949 -544117
644871366735995168 -467222 -437772 -427979 -544190
644871366743386172 -467208 -437787 -428033 -544247
644871366750777176 -467208 -437798 -428013 -544260
644871366758168180 -467203 -437835 -428140 -544154
644871366765559184 -467174 -437903 -428152 -544202
644871366772950188 -467230 -437880 -428135 -544224
644871366780341192 -467219 -437915 -428137 -544201
644871366787732196 -467182 -437857 -428209 -544166
644871366795123200 -467263 -437878 -428169 -544228
644871366802576109 -467425 -437954 -428076 -544325
644871366809963472 -467329 -437880 -428104 -544354
644871366817350835 -467259 -437954 -428184 -544272
644871366824738198 -467332 -437931 -428284 -544211
644871366832125561 -467284 -437998 -428165 -544185
644871366839512924 -467305 -437972 -428305 -544144
644871366846900287 -467278 -437899 -428187 -544141
644871366854287650 -467285 -437987 -428246 -544185
644871366861675013 -467335 -437930 -428249 -544124
644871366869062376 -467263 -437922 -428308 -544152
644871366876449739 -467398 -437912 -428307 -544154
644871366883837102 -467308 -437956 -428337 -544120
644871366891224465 -467315 -437931 -428367 -544222
644871366898611828 -467346 -437904 -428309 -544192
644871366905999191 -467256 -437953 -428302 -544202
644871366913386554 -467277 -437929 -428379 -544197
644871366920773917 -467279 -437918 -428461 -544186
644871366928161280 -467311 -437866 -428362 -544197
644871366935486756 -467236 -438038 -428438 -544054
644871366942877760 -467255 -437970 -428409 -544217
644871366950268764 -467204 -437955 -428375 -544105
644871366957659768 -467155 -437967 -428406 -544178
644871366965050772 -467240 -437907 -428370 -544169
644871366972441776 -467245 -437958 -428380 -544081
644871366979832780 -467211 -437836 -428395 -544157
644871366987223784 -467163 -437831 -428384 -544139
644871366994614788 -467254 -437954 -428341 -544144
644871367002005792 -467260 -437877 -428364 -544155
644871367009396796 -467302 -437871 -428294 -544114
644871367016787800 -467251 -437920 -428372 -544182
644871367024178804 -467368 -437914 -428406 -544192
644871367031569808 -467266 -437880 -428272 -544123
644871367038960812 -467278 -437902 -428232 -544184
644871367046351816 -467196 -437815 -428216 -544124
644871367053742820 -467230 -437854 -428249 -544177
644871367061133824 -467305 -437900 -428346 -544135
644871367068555776 -467267 -437767 -428333 -544220
644871367075944960 -467240 -437752 -428291 -544179
644871367083334144 -467154 -437751 -428203 -544128
644871367090723328 -467146 -437762 -428362 -544158
644871367098112512 -467100 -437741 -428276 -544222
644871367105501696 -467131 -437663 -428217 -544165
644871367112890880 -467195 -437780 -428252 -544234
644871367120280064 -467117 -437704 -428278 -544166
644871367127669248 -467130 -437747 -428230 -544156
644871367135058432 -467075 -437731 -428226 -544134
644871367142447616 -467130 -437759 -428325 -544116
644871367149836800 -467146 -437787 -428345 -544213
644871367157225984 -467176 -437679 -428262 -544116
644871367164615168 -467143 -437684 -428193 -544196
644871367172004352 -467133 -437584 -428203 -544168
644871367179393536 -467083 -437492 -428174 -544070
644871367186782720 -467092 -437589 -428163 -544196
644871367194171904 -467060 -437554 -428178 -544166
644871367201592045 -467114 -437565 -427984 -544068
644871367208979408 -466980 -437475 -428028 -544095
644871367216366771 -466954 -437581 -428076 -544148
644871367223754134 -467004 -437462 -428112 -544124
644871367231141497 -467092 -437553 -428179 -544185
644871367238528860 -467026 -437583 -428167 -544118
644871367245916223 -467092 -437610 -428154 -544181
644871367253303586 -467099 -437720 -428127 -544208
644871367260690949 -467132 -437751 -428229 -544171
644871367268078312 -467186 -437820 -428329 -544192
644871367275465675 -467208 -437956 -428365 -544136
644871367282853038 -467204 -438032 -428420 -544060
644871367290240401 -467315 -437939 -428402 -544151
644871367297627764 -467340 -438050 -428442 -544219
644871367305015127 -467374 -438077 -428516 -544209
644871367312402490 -467453 -438146 -428609 -544167
644871367319789853 -467437 -438249 -428623 -544184
644871367327177216 -467595 -438329 -428742 -544241
644871367334502692 -467724 -438323 -428554 -544024
644871367341893696 -467726 -438451 -428726 -544092
644871367349284700 -467713 -438554 -428767 -544120
